#        t [ns]             Re[<00|Psi>]             Im[<00|Psi>]             Re[<01|Psi>]             Im[<01|Psi>]             Re[<10|Psi>]             Im[<10|Psi>]             Re[<11|Psi>]             Im[<11|Psi>]
       0.000000   1.0000000000000000E+00   0.0000000000000000E+00   0.0000000000000000E+00   0.0000000000000000E+00   0.0000000000000000E+00   0.0000000000000000E+00   0.0000000000000000E+00   0.0000000000000000E+00
       0.100083   9.9999999999844891E-01   1.3877787807814457E-14   3.7801734374164911E-08  -4.5557084403447840E-09   3.8410382669506919E-08  -1.4030421283740631E-09   1.4455853007171948E-15  -2.2802866519725450E-16
       0.200167   9.9999999982193821E-01   5.4723447995286278E-12  -3.5297737793552872E-07   3.0813324000010174E-07  -3.9287151428135865E-07   2.7589107193915020E-07   5.3662033323815577E-14  -2.1843963665692274E-13
       0.300250   9.9999999729520539E-01   6.9895256249452586E-11   3.2704875805151956E-07  -2.2929745481812065E-06   6.7609140070960790E-07  -2.3230898122367835E-06  -5.1056442877522373E-12  -2.3099216637014213E-12
       0.400334   9.9999998131896251E-01  -2.6926516571990078E-10   4.2668828292258385E-06   6.0271001685557926E-06   3.3568552132761713E-06   7.1481904694785326E-06  -2.8757312497983362E-11   5.0731939217570024E-11
       0.500417   9.9999992029288287E-01  -5.0539977203278852E-09  -1.7718411263311613E-05  -2.9325456327344816E-06  -1.8372059254284042E-05  -7.2425144623427856E-06   3.0427534214640308E-10   1.8217820813210900E-10
       0.600500   9.9999975853541989E-01  -2.5274063675251313E-08   2.8657391978400398E-05  -2.1653825799844482E-05   3.7607448068842169E-05  -1.5990210119306009E-05   7.3131711238447122E-10  -1.2724955558355248E-09
       0.700584   9.9999943363070587E-01  -7.0443417321541801E-08  -6.4989437019477237E-06   6.1128148643958770E-05  -2.7254526886577906E-05   6.7757904884141625E-05  -3.9642271386877149E-09  -2.1056208158045490E-09
       0.800667   9.9999889497741612E-01  -1.1796287435750230E-07  -5.9562786264588793E-05  -7.0316636247486427E-05  -4.5143141574105491E-05  -1.0665601656687755E-04  -4.8083915606034238E-09   9.5244254688274949E-09
       0.900751   9.9999806432762295E-01  -8.0086764719933257E-08   1.2244085455996847E-04   1.1001803231819191E-05   1.5281103359446584E-04   6.5376933300247272E-05   1.7981910321950592E-08   9.6802001763751698E-09
       1.000834   9.9999670097516313E-01   1.7333161839161448E-07  -1.2044235560458329E-04   8.7173653043206846E-05  -2.0795781838740755E-04   7.1258027625484868E-05   1.8825152921512667E-08  -2.6686237024316477E-08
       1.100917   9.9999424496336564E-01   6.9209431030614610E-07   5.5593253711665156E-05  -1.6107501857261900E-04   1.4424469455487691E-04  -2.3321442842567816E-04  -2.9492964699820808E-08  -3.6187544100333825E-08
       1.201001   9.9998982135929149E-01   1.2821887300229484E-06   3.4203009964241750E-05   2.0108939171260734E-04   2.5443339336297851E-05   3.3280604193161568E-04  -6.6044819424515336E-08   1.6406493147107709E-08
       1.301084   9.9998253544554161E-01   1.4884232425460553E-06  -1.6904800601897315E-04  -2.1672331453703484E-04  -2.5408706054568517E-04  -3.2479612881837326E-04  -2.7574212173710206E-08   1.0996820071373518E-07
       1.401168   9.9997191124620910E-01   9.0140222008816551E-07   3.7124033633143650E-04   1.2085022768366853E-04   4.9959456615351113E-04   1.6685542764015583E-04   1.6529064812159035E-07   1.2249061813133045E-07
       1.501251   9.9995801272095941E-01  -2.8771408994154868E-07  -4.9665576366865873E-04   1.9333256668472968E-04  -6.5362328108136249E-04   1.9804074940869368E-04   2.8651947657898932E-07  -2.2465986800361995E-07
       1.601334   9.9994080805752517E-01  -9.3937273626387707E-07   3.0500935919925971E-04  -6.0066637951263467E-04   5.0826411586847955E-04  -7.0771551694677015E-04  -2.6987988238292001E-07  -5.2129966427183695E-07
       1.701418   9.9991890995941013E-01   5.8783224821112867E-07   2.0097388025723588E-04   7.5845938995709327E-04   5.6655082648451849E-05   1.0708453550743759E-03  -8.0083530429102112E-07   2.5771140329845497E-07
       1.801501   9.9988865507997493E-01   5.0586529261043012E-06  -6.9164902415179788E-04  -4.9927827923086925E-04  -8.4527832362801293E-04  -9.4490566750753471E-04   1.1189396312391823E-07   1.0754244717037805E-06
       1.901585   9.9984479938660620E-01   1.0842217070872184E-05   9.0107198270102128E-04   1.6523451608285657E-05   1.4284464590909479E-03   2.6077946795577389E-04   1.2825140816549277E-06   2.6031341964215844E-07
       2.001668   9.9978323834677130E-01   1.3759870314267175E-05  -8.7002677650996818E-04   4.8862661403043938E-04  -1.4738432841571066E-03   7.1968125235606899E-04   9.3328226079088424E-07  -1.3458993008923578E-06
       2.101751   9.9970432382202801E-01   9.4292480884439200E-06   6.0719010757884684E-04  -1.0489753506032465E-03   8.9646550737512752E-04  -1.6348349714788992E-03  -1.1700061914172848E-06  -1.9365712646525789E-06
       2.201835   9.9961385971538275E-01  -2.5091759799367175E-06   1.3711252100859716E-04   1.5272536859468439E-03   2.4247754720193063E-04   2.1392460507192622E-03  -3.2381518880869261E-06   6.6242118992653609E-07
       2.301918   9.9951937512593980E-01  -1.5081680270367936E-05  -1.3213959480080381E-03  -1.3353002642540672E-03  -1.6971344588472079E-03  -1.8387507469277548E-03  -2.1544590100800430E-07   4.7005198758840292E-06
       2.402002   9.9942235428765225E-01  -1.5173585955319258E-05   2.1442920770282673E-03   1.3534335231160850E-04   2.8303956583102261E-03   4.8753235655849697E-04   6.0077868858474625E-06   1.4337111100710790E-06
       2.502085   9.9931114115941999E-01   9.2656463314688686E-06  -1.7967084233924627E-03   1.3872594752547479E-03  -2.8183081306023209E-03   1.5260359179007582E-03   2.9552744516592361E-06  -6.6553351272951390E-06
       2.602168   9.9916099608115116E-01   5.8981921010503591E-05   5.5394790471889784E-04  -2.1667663276011160E-03   1.3921163510098005E-03  -3.1653695982244170E-03  -6.0893654323363962E-06  -4.7831786215812032E-06
       2.702252   9.9894469979240774E-01   1.1717188490661945E-04   6.4256949037554817E-04   2.0700022947700491E-03   7.8805195886344384E-04   3.5497354107415693E-03  -6.8618020148412519E-06   3.9111807236944200E-06
       2.802335   9.9864984838290538E-01   1.5417876349776982E-04  -1.5906689984151821E-03  -1.6931933276398432E-03  -2.7651550342449680E-03  -2.6304928949543692E-03  -6.1127150272395370E-08   8.8949781883260921E-06
       2.902419   9.9829202099414371E-01   1.4421476112425058E-04   2.7302289952720838E-03   8.9755445131273670E-04   4.0499871337708873E-03   8.2112978659975200E-04   1.0356281966908247E-05   5.8912666946521937E-06
       3.002502   9.9791208672699194E-01   8.6199628823391272E-05  -3.4994062535750187E-03   1.1198236174631100E-03  -4.3781750956169308E-03   1.6743138313937312E-03   1.3476690020950979E-05  -1.0798906569113630E-05
       3.102585   9.9755383490760108E-01   1.4773918278199183E-05   2.2908971621366922E-03  -3.8073462014826093E-03   3.0880543334069329E-03  -4.5031777372312497E-03  -1.0100657738068253E-05  -2.2128571174805727E-05
       3.202669   9.9723156593819473E-01  -9.8937824232758764E-06   1.0606603739011919E-03   4.8216664089119135E-03   3.0734190498250954E-04   6.3041355252730809E-03  -3.0151245831903770E-05   8.1839833728264206E-06
       3.302752   9.9690766411704745E-01   6.6915906179410012E-05  -4.1186007985460800E-03  -2.8374655453403171E-03  -4.7043472569256346E-03  -5.2682671692142261E-03   4.4195984066944352E-06   3.5144622660405401E-05
       3.402836   9.9649869681723269E-01   2.5816003404427468E-04   4.6180664277332469E-03  -4.0254450237260246E-04   7.4798906154314509E-03   1.1572834040035529E-03   3.5113023807038549E-05   2.3804107090134660E-06
       3.502919   9.9591298122932148E-01   5.1699927047776928E-04  -3.2967509759252601E-03   2.4541998861032392E-03  -6.7463816175513313E-03   3.8555144407573755E-03   1.2895048614156843E-05  -2.9372471778672013E-05
       3.603003   9.9510076683709658E-01   7.5385401446814715E-04   2.0984830108924041E-03  -3.4944793533022720E-03   3.1448255480414880E-03  -7.0732581136161042E-03  -1.8213300761878859E-05  -2.6050553234710359E-05
       3.703086   9.9408514202013887E-01   8.8432993640380486E-04  -5.7957196858114657E-04   4.9974220925359265E-03   1.2235216449966466E-03   7.6151069449764209E-03  -3.9105448965598428E-05   1.7439806465168443E-06
       3.803169   9.9294945728956518E-01   8.8082058244665085E-04  -3.0657770069979847E-03  -5.8283163467333504E-03  -5.1193778804006686E-03  -6.1721407127583380E-03  -2.0380490184767547E-05   4.9225447508493956E-05
       3.903253   9.9178394938332382E-01   7.9294709430194343E-04   7.5331417732347802E-03   2.9357748077901381E-03   8.3639768752839776E-03   2.9974825846403449E-03   5.4787577900792733E-05   4.7495024267952433E-05
       4.003336   9.9062374027671263E-01   7.1851148572577017E-04  -8.3924653508248310E-03   3.4293479837616422E-03  -9.9674308301984389E-03   2.3719112542518622E-03   7.6200740519809910E-05  -5.4751556553088614E-05
       4.103420   9.8942132190971055E-01   7.3907363276276561E-04   3.8574139089045767E-03  -8.4545876938492224E-03   7.6995609539351664E-03  -8.9782469634975184E-03  -4.6859825927346473E-05  -1.0072134153399966E-04
       4.203503   9.8807821547344932E-01   8.6177889772537375E-04   2.3985611561321576E-03   8.4746905248820458E-03  -6.0500317724918387E-04   1.3324418729812706E-02  -1.1561301152931662E-04   2.7269834639343830E-05
       4.303586   9.8652074701748571E-01   1.0115354953980082E-03  -6.1779151536888082E-03  -5.1448040180416682E-03  -8.6401027630661816E-03  -1.1734083924570244E-02  -7.0797405813786295E-06   1.1838771645982288E-04
       4.403670   9.8476833392256191E-01   1.0884749903357083E-03   7.6571865928811945E-03   1.6380284925189784E-03   1.4939212774552088E-02   3.8855219818361214E-03   1.0960829464324596E-04   5.5168744055476517E-05
       4.503753   9.8293734161463653E-01   1.0589388450064630E-03  -8.4985152268299384E-03   2.3497735837285016E-03  -1.4565141685982217E-02   6.4738286711259248E-03   1.1061802164116682E-04  -9.0764855615242624E-05
       4.603837   9.8116095281611404E-01   1.0149422742949388E-03   6.9117038649356248E-03  -8.0493090762934379E-03   7.6827769603399583E-03  -1.4211082118809915E-02  -6.2383635280698966E-05  -1.6331908289518571E-04
       4.703920   9.7946670963819793E-01   1.1456979815018253E-03  -2.6687743240758803E-04   1.2309519505923539E-02   2.2801918720366490E-03   1.6024754082023640E-02  -2.0230892134766662E-04   2.4050377615029159E-05
       4.804003   9.7769720210487221E-01   1.6180185504979239E-03  -8.5976810640466268E-03  -1.0075183378729612E-02  -1.1068583351868487E-02  -1.1754467370303126E-02  -2.4106235142923375E-05   2.1806311967332109E-04
       4.904087   9.7554950957151254E-01   2.4307922216955657E-03   1.2987563446223623E-02   1.9377990070200577E-03   1.5763304942622666E-02   3.6307444177743689E-03   2.0382359457401110E-04   7.9770856965378925E-05
       5.004170   9.7274016132104624E-01   3.3465002875535110E-03  -1.0700905850870055E-02   5.8825354066357818E-03  -1.5544318415675834E-02   5.4935274021229302E-03   1.3753415662497962E-04  -1.5615344311968081E-04
       5.104254   9.6921025860282772E-01   3.9740778090103790E-03   5.7477600837917003E-03  -9.8214035813190912E-03   1.0846370464181892E-02  -1.3520285233204133E-02  -7.4684831497100968E-05  -1.8960102952821604E-04
       5.204337   9.6523383849005662E-01   3.9849470047710334E-03  -7.4620860238204870E-04   1.1865648459458018E-02  -2.0705345725239750E-03   1.8776300378214553E-02  -2.2878340805494978E-04  -3.8055582536484132E-05
       5.304420   9.6133125026883814E-01   3.3434295838785655E-03  -6.3809393453668180E-03  -1.2492890439388078E-02  -9.9093353325117681E-03  -1.8618777598568111E-02  -1.7463456322196937E-04   2.5208111773477421E-04
       5.404504   9.5800495757918624E-01   2.4005159106342822E-03   1.5116304433658695E-02   7.1928169936354520E-03   2.1335761097527918E-02   1.0102367553584915E-02   2.6039216463070113E-04   3.1850862999237457E-04
       5.504587   9.5543336725329642E-01   1.7665700300052989E-03  -1.8027784896398173E-02   5.3163578243668195E-03  -2.5254611350721053E-02   5.9626950795928918E-03   4.4272776455894373E-04  -2.5216561023310368E-04
       5.604671   9.5330424292415550E-01   2.0029077107541760E-03   9.7787335916586296E-03  -1.6740679062308576E-02   1.6575592034208685E-02  -2.2090714932646888E-02  -2.1676044694033428E-04  -5.1757620828830355E-04
       5.704754   9.5091491306059850E-01   3.2857554591423921E-03   3.6669410805897197E-03   1.7895985504807095E-02   1.5852655567579269E-03   2.8182847611133769E-02  -5.2489329375803777E-04   1.3772526955603697E-04
       5.804837   9.4752705013337390E-01   5.2426890013147487E-03  -1.1931798463354392E-02  -1.0569993864058021E-02  -1.8677050735286124E-02  -2.0369294197435970E-02   7.9182771168826783E-06   4.6669685521717860E-04
       5.904921   9.4279679531381877E-01   7.0971284471225138E-03   1.3611493138443053E-02   3.3176549806055171E-03   2.5665596215278419E-02   4.6368531468337594E-03   3.5794987615485552E-04   1.5685625940330263E-04
       6.005004   9.3701599937072300E-01   8.0787883207938394E-03  -1.4557769258619329E-02   2.2227524149624569E-03  -2.2242382687147965E-02   9.7463369521294425E-03   3.2232392958576753E-04  -2.0987645700044146E-04
       6.105088   9.3099243030465306E-01   7.8690189608743855E-03   1.4319072771157897E-02  -1.1229716112566386E-02   1.3753979932654654E-02  -1.8898587839902167E-02  -2.3255816504518863E-05  -4.5733753375419930E-04
       6.205171   9.2562322271794351E-01   6.8069074937410767E-03  -5.1789306723245936E-03   2.1686995850504473E-02  -2.9844681978566973E-03   2.4137887807960456E-02  -5.5054521299239731E-04  -1.9812046607609838E-04
       6.305254   9.2140606877585651E-01   5.7288772060321569E-03  -1.2529251239067694E-02  -2.1851478053952180E-02  -1.1144577941810205E-02  -2.4720198135017635E-02  -4.2838042861682000E-04   6.0268065450901184E-04
       6.405338   9.1816202715271378E-01   5.5306491798461921E-03   2.4913279092622750E-02   6.9239403096219860E-03   2.6493770783189617E-02   1.5719985308256090E-02   6.0289732760930104E-04   6.2029133641978073E-04
       6.505421   9.1512709953475824E-01   6.6875392370019937E-03  -2.1289725118510430E-02   1.1178179242911057E-02  -3.3982799989883843E-02   4.3460797223554603E-03   7.3148646475623658E-04  -5.1937460740213138E-04
       6.605505   9.1137796196384457E-01   8.9980402667715342E-03   8.3264331562982637E-03  -1.8649884466946740E-02   2.5062679087879597E-02  -2.6707898935302364E-02  -3.2164177895957372E-04  -7.5202707354668930E-04
       6.705588   9.0635880468579799E-01   1.1715184765959841E-02   1.2447939414437837E-03   1.7018843284032775E-02  -2.1471879490376480E-03   3.7407779475562682E-02  -7.0446754810277244E-04   1.6008898613900061E-05
       6.805671   9.0018226050204220E-01   1.4007346796372611E-02  -7.0882149061376430E-03  -1.5658236892252705E-02  -2.1598667334370950E-02  -2.9786426879186933E-02  -3.4260252931549943E-04   6.1576756870274107E-04
       6.905755   8.9350132725548603E-01   1.5460171529660838E-02   1.6638059116679326E-02   1.3220702266591304E-02   3.3580939203344422E-02   9.9096076805460249E-03   4.9050232113498891E-04   6.7654707129948346E-04
       7.005838   8.8703991448789732E-01   1.6288088471289375E-02  -2.6244908354081102E-02  -4.3560608348565562E-04  -3.1137965122152111E-02   1.0553090849141904E-02   9.2455111263154972E-04  -3.1286377071140049E-04
       7.105922   8.8110176142108332E-01   1.7123395161294519E-02   2.2130958843262809E-02  -1.9808528591587861E-02   1.9643529311562092E-02  -2.4390326139430648E-02  -7.3514062756708035E-05  -1.0584721014393901E-03
       7.206005   8.7538243623007772E-01   1.8532226097935589E-02  -2.1317944349746156E-03   3.0330272309422514E-02  -4.4655123920751081E-03   3.0807240001111281E-02  -1.0692937184221801E-03  -2.0801940555041377E-04
       7.306088   8.6921202647035589E-01   2.0578332879920391E-02  -1.7568306335613352E-02  -2.2078675059841887E-02  -1.2457974205195840E-02  -3.0103698636632686E-02  -4.8787817129348912E-04   9.4615858374593842E-04
       7.406172   8.6208080123423403E-01   2.2735655628888185E-02   2.3444509247748792E-02   5.9113653904957902E-03   2.8913939989139097E-02   2.0228109460629543E-02   6.7487069023262067E-04   7.2385675244993595E-04
       7.506255   8.5409250907017920E-01   2.4238322650072475E-02  -2.0261167477819652E-02   5.0822334294218872E-03  -3.8549069096692444E-02  -6.6435720301741968E-05   8.9837929428358745E-04  -2.5776734123019276E-04
       7.606339   8.4600695274348814E-01   2.4649575114424283E-02   1.7208445829064434E-02  -1.2987233678274963E-02   3.3385683137333574E-02  -2.4980441668936749E-02   2.6490813183805773E-04  -1.0187978799007630E-03
       7.706422   8.3880810866383027E-01   2.4253685499829314E-02  -1.0186616132550969E-02   2.3927704773591685E-02  -1.1343989122713092E-02   4.2740029580498363E-02  -1.0951056830294037E-03  -8.1183357556246496E-04
       7.806505   8.3306319870684808E-01   2.3987314106018565E-02  -8.2816786493553358E-03  -2.9895070857937866E-02  -1.8774832137257939E-02  -4.1708005397842897E-02  -1.2806381342797964E-03   1.1134376275630841E-03
       7.906589   8.2847507099666573E-01   2.4925216477213630E-02   2.9008921892887361E-02   1.7849778472493753E-02   4.1117708951075319E-02   2.0569247536017018E-02   1.0294271228598276E-03   1.5820029601944687E-03
       8.006672   8.2392917349983119E-01   2.7599004304636243E-02  -3.3147425513643518E-02   7.1330556519419493E-03  -4.3830842493884435E-02   9.2884930527098626E-03   1.6702885562294529E-03  -7.9382444136160389E-04
       8.106756   8.1808021204715164E-01   3.1551923228856693E-02   1.8125659781717277E-02  -2.4626571893785580E-02   2.7803573666127020E-02  -3.2012732039512097E-02  -3.9644299751626642E-04  -1.5519208072899207E-03
       8.206839   8.1018716846998662E-01   3.5467884606352251E-02  -5.0965642107671065E-04   2.5602410746337043E-02  -4.3134034183764953E-03   3.9187758249555858E-02  -1.2645579727365056E-03  -1.0878628502613609E-04
       8.306922   8.0066274675149818E-01   3.7890470861398184E-02  -9.1782029396642543E-03  -2.0478440161981599E-02  -1.5983919880830363E-02  -3.3431018651361930E-02  -6.2710623057369848E-04   8.4408137102100005E-04
       8.407006   7.9092806308974550E-01   3.8106327008817387E-02   1.7848265817133727E-02   1.6686928517201459E-02   3.0162848953442824E-02   2.0759855426501054E-02   3.1240845995248530E-04   1.0796198565040558E-03
       8.507089   7.8264455559416490E-01   3.6610700643729233E-02  -2.9537433822654793E-02  -5.6306790611621201E-03  -3.8607002484253264E-02  -2.6700980187562111E-03   1.4384546970778993E-03   2.9816509218678493E-04
       8.607173   7.7680391718638897E-01   3.4877636610546769E-02   3.0825606456321389E-02  -1.7641510222140805E-02   3.7140104781789057E-02  -2.0997360818473851E-02   9.1153984769449072E-04  -1.7013452454870469E-03
       8.707256   7.7317784863223804E-01   3.4599302492622164E-02  -1.0532406509808389E-02   3.6796181591446722E-02  -1.9176235692002420E-02   4.3081134826814596E-02  -1.8325830512971497E-03  -1.4134185358845588E-03
       8.807339   7.7039879247753151E-01   3.6793627281381580E-02  -1.7833888287568839E-02  -3.2687088986573042E-02  -1.2862127460776111E-02  -4.9158072763678215E-02  -1.7076701120001549E-03   1.7432942011545724E-03
       8.907423   7.6666946111092704E-01   4.1221285026195598E-02   3.0704628004697969E-02   1.0908370586051161E-02   4.2756005837896585E-02   3.0688105498557043E-02   1.3504452675911888E-03   1.7754457087296731E-03
       9.007506   7.6077969373313481E-01   4.6473181449866063E-02  -2.5347278273924266E-02   6.7037039156846653E-03  -5.2010753080354230E-02   3.6569635372088356E-03   1.6760451716584541E-03  -6.6682474414251724E-04
