#              time [ns]          Abs(ampl) [MHz]
4.000399999999999789e-02 1.819529999999999976e-04
1.200119999999999937e-01 1.637581799999999988e-03
2.000200000000000033e-01 4.548864900000000426e-03
2.800279999999999991e-01 8.915853399999999762e-03
3.600360000000000227e-01 1.473862400000000052e-02
4.400439999999999907e-01 2.201727800000000124e-02
5.200520100000000090e-01 3.075194300000000033e-02
6.000600099999999770e-01 4.094277300000000175e-02
6.800680099999999451e-01 5.258994599999999853e-02
7.600760100000000241e-01 6.569366499999999831e-02
8.400840099999999921e-01 8.025416100000000441e-02
9.200920099999999602e-01 9.627168799999999416e-02
1.000099999999999989e+00 1.137465299999999985e-01
1.080108000000000068e+00 1.326789800000000019e-01
1.160115999999999925e+00 1.530693899999999996e-01
1.240124000000000004e+00 1.749180999999999930e-01
1.320132000000000083e+00 1.982254999999999989e-01
1.400139999999999940e+00 2.229919900000000010e-01
1.480148000000000019e+00 2.492180200000000123e-01
1.560156000000000098e+00 2.769040300000000232e-01
1.640163999999999955e+00 3.060505099999999978e-01
1.720172000000000034e+00 3.366579699999999731e-01
1.800179999999999891e+00 3.687269400000000030e-01
1.880187999999999970e+00 4.022579900000000097e-01
1.960196000000000049e+00 4.372517100000000156e-01
2.040204000000000129e+00 4.737086899999999878e-01
2.120211999999999986e+00 5.116295800000000282e-01
2.200219999999999843e+00 5.510150400000000115e-01
2.280228000000000144e+00 5.918657499999999683e-01
2.360236000000000001e+00 6.341824299999999637e-01
2.440243999999999858e+00 6.779658100000000021e-01
2.520252000000000159e+00 7.232166599999999557e-01
2.600260000000000016e+00 7.699357599999999691e-01
2.680267999999999873e+00 8.181239399999999939e-01
2.760276000000000174e+00 8.677820099999999925e-01
2.840284000000000031e+00 9.189108499999999458e-01
2.920291999999999888e+00 9.715113499999999958e-01
3.000300000000000189e+00 1.025584400000000063e+00
3.080308000000000046e+00 1.081131000000000064e+00
3.160315999999999903e+00 1.138152100000000111e+00
3.240324000000000204e+00 1.196648600000000062e+00
3.320332000000000061e+00 1.256621500000000058e+00
3.400339999999999918e+00 1.318071999999999910e+00
3.480348000000000219e+00 1.381001099999999981e+00
3.560356000000000076e+00 1.445409900000000025e+00
3.640363999999999933e+00 1.511299399999999959e+00
3.720371999999999790e+00 1.578670800000000041e+00
3.800380000000000091e+00 1.647525300000000081e+00
3.880387999999999948e+00 1.717864099999999894e+00
3.960395999999999805e+00 1.789688399999999957e+00
4.040403999999999662e+00 1.862999300000000025e+00
4.120411999999999964e+00 1.937798300000000085e+00
4.200420000000000265e+00 2.014086499999999891e+00
4.280427999999999678e+00 2.091865400000000097e+00
4.360435999999999979e+00 2.171136100000000013e+00
4.440444000000000280e+00 2.251900099999999849e+00
4.520451999999999693e+00 2.334158799999999978e+00
4.600459999999999994e+00 2.417913500000000049e+00
4.680468000000000295e+00 2.503165800000000107e+00
4.760475999999999708e+00 2.589916999999999803e+00
4.840484000000000009e+00 2.678168700000000069e+00
4.920492000000000310e+00 2.767922399999999783e+00
5.000500100000000003e+00 2.859179500000000207e+00
5.080508100000000304e+00 2.951941699999999891e+00
5.160516099999999717e+00 3.046210499999999932e+00
5.240524100000000018e+00 3.141987600000000214e+00
5.320532100000000320e+00 3.239274500000000057e+00
5.400540099999999732e+00 3.338073000000000068e+00
5.480548100000000034e+00 3.438384600000000013e+00
5.560556100000000335e+00 3.540211199999999891e+00
5.640564099999999748e+00 3.643554400000000193e+00
5.720572100000000049e+00 3.748415899999999912e+00
5.800580100000000350e+00 3.854797700000000216e+00
5.880588099999999763e+00 3.962701399999999818e+00
5.960596100000000064e+00 4.072128799999999771e+00
6.040604100000000365e+00 4.183081900000000353e+00
6.120612099999999778e+00 4.295562499999999950e+00
6.200620100000000079e+00 4.409572400000000059e+00
6.280628100000000380e+00 4.525113700000000350e+00
6.360636099999999793e+00 4.642188199999999654e+00
6.440644100000000094e+00 4.760797900000000027e+00
6.520652100000000395e+00 4.880944799999999972e+00
6.600660099999999808e+00 5.002630899999999770e+00
6.680668100000000109e+00 5.125858299999999979e+00
6.760676100000000410e+00 5.250628999999999991e+00
6.840684099999999823e+00 5.376945000000000086e+00
6.920692100000000124e+00 5.504808599999999608e+00
7.000700100000000425e+00 5.634221799999999725e+00
7.080708099999999838e+00 5.765186700000000108e+00
7.160716100000000139e+00 5.897705600000000103e+00
7.240724100000000441e+00 6.031780699999999662e+00
7.320732099999999853e+00 6.167414100000000232e+00
7.400740100000000155e+00 6.304608199999999663e+00
7.480748099999999567e+00 6.443365100000000290e+00
7.560756099999999869e+00 6.583687199999999962e+00
7.640764100000000170e+00 6.725576799999999800e+00
7.720772099999999583e+00 6.869036200000000036e+00
7.800780099999999884e+00 7.014067800000000297e+00
7.880788100000000185e+00 7.160673899999999925e+00
7.960796099999999598e+00 7.308857099999999996e+00
8.040804100000000787e+00 7.458619599999999572e+00
8.120812100000000200e+00 7.609963900000000336e+00
8.200820099999999613e+00 7.762892599999999810e+00
8.280828100000000802e+00 7.917408100000000282e+00
8.360836100000000215e+00 8.073512900000000769e+00
8.440844099999999628e+00 8.231209599999999682e+00
8.520852100000000817e+00 8.390500799999999870e+00
8.600860100000000230e+00 8.551388899999999182e+00
8.680868099999999643e+00 8.713876600000000749e+00
8.760876100000000832e+00 8.877966600000000597e+00
8.840884100000000245e+00 9.043661500000000686e+00
8.920892099999999658e+00 9.210964000000000595e+00
9.000900100000000847e+00 9.379876700000000511e+00
9.080908100000000260e+00 9.550402399999999403e+00
9.160916099999999673e+00 9.722543800000000402e+00
9.240924100000000863e+00 9.896303700000000703e+00
9.320932100000000275e+00 1.007168500000000044e+01
9.400940099999999688e+00 1.024868999999999986e+01
9.480948100000000878e+00 1.042732200000000020e+01
9.560956100000000291e+00 1.060758399999999924e+01
9.640964099999999704e+00 1.078947800000000079e+01
9.720972099999999116e+00 1.097300800000000010e+01
9.800980100000000306e+00 1.115817599999999921e+01
9.880988099999999719e+00 1.134498600000000046e+01
9.960996099999999132e+00 1.153343899999999955e+01
1.004100399999999915e+01 1.172353999999999985e+01
1.012101200000000034e+01 1.191529200000000088e+01
1.020101999999999975e+01 1.210869600000000013e+01
1.028102799999999917e+01 1.230375699999999917e+01
1.036103600000000036e+01 1.250047700000000006e+01
1.044104399999999977e+01 1.269885900000000056e+01
1.052105199999999918e+01 1.289890699999999946e+01
1.060106000000000037e+01 1.310062399999999982e+01
1.068106799999999978e+01 1.330401200000000017e+01
1.076107599999999920e+01 1.350907499999999928e+01
1.084108400000000039e+01 1.371581600000000023e+01
1.092109199999999980e+01 1.392423900000000003e+01
1.100109999999999921e+01 1.413434600000000074e+01
1.108110800000000040e+01 1.434614099999999937e+01
1.116111599999999981e+01 1.455962599999999973e+01
1.124112399999999923e+01 1.477480599999999988e+01
1.132113200000000042e+01 1.499168399999999934e+01
1.140113999999999983e+01 1.521026200000000017e+01
1.148114799999999924e+01 1.543054500000000040e+01
1.156115600000000043e+01 1.565253500000000031e+01
1.164116399999999985e+01 1.587623600000000046e+01
1.172117199999999926e+01 1.610165200000000141e+01
1.180118000000000045e+01 1.632878499999999988e+01
1.188118799999999986e+01 1.655763900000000177e+01
1.196119599999999927e+01 1.678821800000000053e+01
1.204120400000000046e+01 1.702052499999999924e+01
1.212121199999999988e+01 1.725456399999999846e+01
1.220121999999999929e+01 1.749033700000000024e+01
1.228122800000000048e+01 1.772785000000000011e+01
1.236123599999999989e+01 1.796710399999999908e+01
1.244124399999999930e+01 1.820810399999999873e+01
1.252125200000000049e+01 1.845085399999999964e+01
1.260125999999999991e+01 1.869535600000000031e+01
1.268126799999999932e+01 1.894161499999999876e+01
1.276127600000000051e+01 1.918963400000000163e+01
1.284128399999999992e+01 1.943941699999999884e+01
1.292129199999999933e+01 1.969096800000000158e+01
1.300130000000000052e+01 1.994428900000000127e+01
1.308130799999999994e+01 2.019938600000000051e+01
1.316131599999999935e+01 2.045626100000000136e+01
1.324132400000000054e+01 2.071491899999999831e+01
1.332133199999999995e+01 2.097536200000000051e+01
1.340133999999999936e+01 2.123759599999999992e+01
1.348134800000000055e+01 2.150162299999999860e+01
1.356135599999999997e+01 2.176744700000000066e+01
1.364136399999999938e+01 2.203507400000000160e+01
1.372137200000000057e+01 2.230450499999999892e+01
1.380137999999999998e+01 2.257574500000000128e+01
1.388138799999999939e+01 2.284879799999999861e+01
1.396139600000000058e+01 2.312366799999999856e+01
1.404140400000000000e+01 2.340035900000000169e+01
1.412141199999999941e+01 2.367887500000000145e+01
1.420142000000000060e+01 2.395921900000000093e+01
1.428142800000000001e+01 2.424139600000000172e+01
1.436143599999999942e+01 2.452540899999999979e+01
1.444144400000000061e+01 2.481126300000000029e+01
1.452145200000000003e+01 2.509896099999999919e+01
1.460145999999999944e+01 2.538850800000000163e+01
1.468146800000000063e+01 2.567990800000000107e+01
1.476147600000000004e+01 2.597316500000000161e+01
1.484148399999999945e+01 2.626828199999999924e+01
1.492149200000000064e+01 2.656526399999999910e+01
1.500150000000000006e+01 2.686411500000000174e+01
1.508150799999999947e+01 2.716483900000000062e+01
1.516151600000000066e+01 2.746744100000000088e+01
1.524152400000000007e+01 2.777192399999999850e+01
1.532153199999999948e+01 2.807829299999999861e+01
1.540154000000000067e+01 2.838655100000000076e+01
1.548154800000000009e+01 2.869670299999999941e+01
1.556155599999999950e+01 2.900875399999999971e+01
1.564156400000000069e+01 2.932270700000000119e+01
1.572157200000000010e+01 2.963856699999999833e+01
1.580157999999999952e+01 2.995633700000000132e+01
1.588158800000000070e+01 3.027602299999999858e+01
1.596159600000000012e+01 3.059762800000000027e+01
1.604160399999999953e+01 3.092115700000000089e+01
1.612161199999999894e+01 3.124661400000000100e+01
1.620161999999999836e+01 3.157400399999999863e+01
1.628162800000000132e+01 3.190333000000000041e+01
1.636163600000000073e+01 3.223459700000000083e+01
1.644164400000000015e+01 3.256781000000000148e+01
1.652165199999999956e+01 3.290297300000000291e+01
1.660165999999999897e+01 3.324009000000000214e+01
1.668166799999999839e+01 3.357916500000000326e+01
1.676167600000000135e+01 3.392020399999999825e+01
1.684168400000000076e+01 3.426321099999999831e+01
1.692169200000000018e+01 3.460818900000000298e+01
1.700169999999999959e+01 3.495514399999999711e+01
1.708170799999999900e+01 3.530407900000000154e+01
1.716171599999999842e+01 3.565500000000000114e+01
1.724172400000000138e+01 3.600791100000000000e+01
1.732173200000000080e+01 3.636281699999999972e+01
1.740174000000000021e+01 3.671972099999999983e+01
1.748174799999999962e+01 3.707862899999999939e+01
1.756175599999999903e+01 3.743954500000000252e+01
1.764176399999999845e+01 3.780247299999999910e+01
1.772177200000000141e+01 3.816741900000000243e+01
1.780178000000000083e+01 3.853438599999999781e+01
1.788178800000000024e+01 3.890337999999999852e+01
1.796179599999999965e+01 3.927440399999999698e+01
1.804180399999999906e+01 3.964746499999999685e+01
1.812181199999999848e+01 4.002256500000000017e+01
1.820182000000000144e+01 4.039970999999999890e+01
1.828182800000000086e+01 4.077890500000000173e+01
1.836183600000000027e+01 4.116015399999999858e+01
1.844184399999999968e+01 4.154346199999999811e+01
1.852185199999999909e+01 4.192883299999999736e+01
1.860185999999999851e+01 4.231627199999999789e+01
1.868186800000000147e+01 4.270578400000000130e+01
1.876187600000000089e+01 4.309737400000000207e+01
1.884188400000000030e+01 4.349104700000000179e+01
1.892189199999999971e+01 4.388680599999999998e+01
1.900189999999999912e+01 4.428465700000000282e+01
1.908190799999999854e+01 4.468460499999999769e+01
1.916191600000000150e+01 4.508665400000000290e+01
1.924192400000000092e+01 4.549080899999999872e+01
1.932193200000000033e+01 4.589707500000000095e+01
1.940193999999999974e+01 4.630545699999999698e+01
1.948194799999999915e+01 4.671595899999999801e+01
1.956195599999999857e+01 4.712858599999999853e+01
1.964196400000000153e+01 4.754334399999999761e+01
1.972197200000000095e+01 4.796023699999999934e+01
1.980198000000000036e+01 4.837926900000000074e+01
1.988198799999999977e+01 4.880044600000000088e+01
1.996199599999999919e+01 4.922377300000000133e+01
2.004200399999999860e+01 4.964925399999999911e+01
2.012201200000000156e+01 5.007689400000000290e+01
2.020202000000000098e+01 5.050669800000000009e+01
2.028202800000000039e+01 5.093867099999999937e+01
2.036203599999999980e+01 5.137281800000000231e+01
2.044204399999999922e+01 5.180914400000000342e+01
2.052205199999999863e+01 5.224765299999999968e+01
2.060206000000000159e+01 5.268835099999999727e+01
2.068206800000000101e+01 5.313124299999999778e+01
2.076207600000000042e+01 5.357633299999999821e+01
2.084208399999999983e+01 5.402362600000000015e+01
2.092209199999999925e+01 5.447312800000000266e+01
2.100209999999999866e+01 5.492484300000000275e+01
2.108210800000000162e+01 5.537877699999999948e+01
2.116211600000000104e+01 5.583493299999999948e+01
2.124212400000000045e+01 5.629331799999999930e+01
2.132213199999999986e+01 5.675393600000000305e+01
2.140213999999999928e+01 5.721679199999999810e+01
2.148214799999999869e+01 5.768189100000000025e+01
2.156215600000000165e+01 5.814923799999999687e+01
2.164216400000000107e+01 5.861883900000000125e+01
2.172217200000000048e+01 5.909069699999999870e+01
2.180217999999999989e+01 5.956481899999999996e+01
2.188218799999999931e+01 6.004120900000000205e+01
2.196219599999999872e+01 6.051987199999999945e+01
2.204220400000000168e+01 6.100081399999999832e+01
2.212221200000000110e+01 6.148403799999999819e+01
2.220222000000000051e+01 6.196955100000000272e+01
2.228222799999999992e+01 6.245735700000000179e+01
2.236223599999999934e+01 6.294746200000000158e+01
2.244224399999999875e+01 6.343986999999999910e+01
2.252225200000000171e+01 6.393458600000000303e+01
2.260226000000000113e+01 6.443161600000000533e+01
2.268226800000000054e+01 6.493096500000000049e+01
2.276227599999999995e+01 6.543263699999999972e+01
2.284228399999999937e+01 6.593663800000000208e+01
2.292229199999999878e+01 6.644297299999999495e+01
2.300230000000000175e+01 6.695164699999999414e+01
2.308230800000000116e+01 6.746266400000000374e+01
2.316231600000000057e+01 6.797603100000000609e+01
2.324232399999999998e+01 6.849175200000000530e+01
2.332233199999999940e+01 6.900983200000000295e+01
2.340233999999999881e+01 6.953027699999999811e+01
2.348234800000000178e+01 7.005309099999999489e+01
2.356235600000000119e+01 7.057827899999999488e+01
2.364236400000000060e+01 7.110584699999999714e+01
2.372237200000000001e+01 7.163580000000000325e+01
2.380237999999999943e+01 7.216814300000000060e+01
2.388238799999999884e+01 7.270287999999999329e+01
2.396239599999999825e+01 7.324001800000000628e+01
2.404240400000000122e+01 7.377956000000000358e+01
2.412241200000000063e+01 7.432151399999999342e+01
2.420242000000000004e+01 7.486588199999999915e+01
2.428242799999999946e+01 7.541267100000000312e+01
2.436243599999999887e+01 7.596188499999999522e+01
2.444244399999999828e+01 7.651353100000000040e+01
2.452245200000000125e+01 7.706761199999999690e+01
2.460246000000000066e+01 7.762413399999999797e+01
2.468246800000000007e+01 7.818310200000000521e+01
2.476247599999999949e+01 7.874452100000000598e+01
2.484248399999999890e+01 7.930839699999999937e+01
2.492249199999999831e+01 7.987473400000000368e+01
2.500250000000000128e+01 8.044353700000000629e+01
2.508250800000000069e+01 8.101481200000000626e+01
2.516251600000000010e+01 8.158856500000000267e+01
2.524252399999999952e+01 8.216479900000000214e+01
2.532253199999999893e+01 8.274352000000000373e+01
2.540253999999999834e+01 8.332473299999999483e+01
2.548254800000000131e+01 8.390844300000000544e+01
2.556255600000000072e+01 8.449465600000000620e+01
2.564256400000000014e+01 8.508337600000000123e+01
2.572257199999999955e+01 8.567460900000000379e+01
2.580257999999999896e+01 8.626835900000000379e+01
2.588258799999999837e+01 8.686463299999999776e+01
2.596259600000000134e+01 8.746343400000000656e+01
2.604260400000000075e+01 8.806476800000000082e+01
2.612261200000000017e+01 8.866864099999999382e+01
2.620261999999999958e+01 8.927505700000000388e+01
2.628262799999999899e+01 8.988402100000000416e+01
2.636263599999999840e+01 9.049553799999999626e+01
2.644264400000000137e+01 9.110961399999999344e+01
2.652265200000000078e+01 9.172625399999999729e+01
2.660266000000000020e+01 9.234546199999999772e+01
2.668266799999999961e+01 9.296724399999999378e+01
2.676267599999999902e+01 9.359160599999999874e+01
2.684268399999999843e+01 9.421855100000000505e+01
2.692269200000000140e+01 9.484808499999999754e+01
2.700270000000000081e+01 9.548021300000000622e+01
2.708270800000000023e+01 9.611494000000000426e+01
2.716271599999999964e+01 9.675227200000000494e+01
2.724272399999999905e+01 9.739221200000000067e+01
2.732273199999999846e+01 9.803476799999999969e+01
2.740274000000000143e+01 9.867994199999999694e+01
2.748274800000000084e+01 9.932774100000000317e+01
2.756275600000000026e+01 9.997817000000000576e+01
2.764276399999999967e+01 1.006312300000000022e+02
2.772277199999999908e+01 1.012869400000000013e+02
2.780277999999999849e+01 1.019452799999999968e+02
2.788278800000000146e+01 1.026062799999999982e+02
2.796279600000000087e+01 1.032699300000000022e+02
2.804280400000000029e+01 1.039362399999999980e+02
2.812281199999999970e+01 1.046052200000000028e+02
2.820281999999999911e+01 1.052768599999999992e+02
2.828282799999999853e+01 1.059511799999999937e+02
2.836283600000000149e+01 1.066281800000000004e+02
2.844284400000000090e+01 1.073078699999999941e+02
2.852285200000000032e+01 1.079902400000000000e+02
2.860285999999999973e+01 1.086753099999999961e+02
2.868286799999999914e+01 1.093630799999999965e+02
2.876287599999999856e+01 1.100535500000000013e+02
2.884288400000000152e+01 1.107467400000000026e+02
2.892289200000000093e+01 1.114426299999999941e+02
2.900290000000000035e+01 1.121412499999999994e+02
2.908290799999999976e+01 1.128425900000000013e+02
2.916291599999999917e+01 1.135466600000000028e+02
2.924292399999999859e+01 1.142534600000000040e+02
2.932293200000000155e+01 1.149629999999999939e+02
2.940294000000000096e+01 1.156752900000000039e+02
2.948294800000000038e+01 1.163903300000000058e+02
2.956295599999999979e+01 1.171081199999999995e+02
2.964296399999999920e+01 1.178286599999999993e+02
2.972297199999999862e+01 1.185519699999999972e+02
2.980298000000000158e+01 1.192780499999999932e+02
2.988298800000000099e+01 1.200069100000000049e+02
2.996299600000000041e+01 1.207385400000000004e+02
3.004300399999999982e+01 1.214729499999999973e+02
3.012301199999999923e+01 1.222101499999999987e+02
3.020301999999999865e+01 1.229501400000000046e+02
3.028302800000000161e+01 1.236929300000000040e+02
3.036303600000000102e+01 1.244385300000000001e+02
3.044304400000000044e+01 1.251869200000000006e+02
3.052305199999999985e+01 1.259381400000000042e+02
3.060305999999999926e+01 1.266921600000000012e+02
3.068306799999999868e+01 1.274490100000000012e+02
3.076307600000000164e+01 1.282086799999999869e+02
3.084308400000000105e+01 1.289711900000000071e+02
3.092309200000000047e+01 1.297365299999999877e+02
3.100309999999999988e+01 1.305047099999999887e+02
3.108310799999999929e+01 1.312757300000000100e+02
3.116311599999999871e+01 1.320496100000000013e+02
3.124312400000000167e+01 1.328263399999999876e+02
3.132313200000000109e+01 1.336059199999999976e+02
3.140314000000000050e+01 1.343883700000000090e+02
3.148314799999999991e+01 1.351736899999999935e+02
3.156315599999999932e+01 1.359618800000000078e+02
3.164316399999999874e+01 1.367529499999999985e+02
3.172317200000000170e+01 1.375468999999999937e+02
3.180318000000000112e+01 1.383437299999999937e+02
3.188318800000000053e+01 1.391434600000000046e+02
