#        t [ns]             Re[<00|Psi>]             Im[<00|Psi>]             Re[<01|Psi>]             Im[<01|Psi>]             Re[<10|Psi>]             Im[<10|Psi>]             Re[<11|Psi>]             Im[<11|Psi>]
       0.000000   0.0000000000000000E+00   0.0000000000000000E+00   9.9999999999999933E-01   0.0000000000000000E+00  -2.1510571102112403E-16   0.0000000000000000E+00  -1.1914119538221819E-32   0.0000000000000000E+00
       0.100050  -6.5403566452634095E-10   2.2615691946210668E-09  -1.5768706469471688E-01   9.8748913392905791E-01  -2.2985086056692712E-17  -2.3245294578089215E-16   2.7298673757531138E-10  -1.7206162266710761E-09
       0.200100  -1.6495904673596576E-08   1.6332129968479914E-08  -9.5026957925588440E-01  -3.1142852589438907E-01   5.9327542878406803E-16   1.2143064331837652E-16   2.4685561725387301E-10   1.6928924450816271E-08
       0.300150  -7.4570960633094276E-08   2.5896247510447576E-08   4.5737750593756155E-01  -8.8927263370759346E-01  -2.5222879340702775E-15   3.6047553830798051E-15  -5.5345736018113636E-09  -5.5593787966543873E-08
       0.400200  -1.8083569164062188E-07  -1.9007958344566346E-08   8.0602454651598410E-01   5.9188210853802803E-01  -1.4122383817927187E-14  -1.6037518535405582E-14   2.2009570063237728E-08   1.2134631606081973E-07
       0.500250  -2.8976593715878131E-07  -1.7554375926230456E-07  -7.1157679555378761E-01   7.0260832901783454E-01   6.0456847861267704E-14  -3.4772532075955098E-14  -5.8020823073986535E-08  -2.0990493802401496E-07
       0.600300  -3.0256066502791244E-07  -4.6015013745190592E-07  -5.8161163410398775E-01  -8.1346659857822412E-01   5.7934559927197427E-14   1.6267022451277313E-13   1.2281484215511260E-07   3.0901809287896700E-07
       0.700350  -1.0549368171711730E-07  -8.0585258368730586E-07   8.9500205823400181E-01  -4.4606200866453577E-01  -3.4550140526334872E-13   6.3761496083003522E-14  -2.2487567626936127E-07  -3.9988330077859741E-07
       0.800400   3.6205987620502155E-07  -1.0550366783295076E-06   2.9935113912684425E-01   9.5414301605957574E-01  -2.8082570990850542E-14  -6.1955822416859263E-13   3.6970156812625334E-07   4.5972130097859823E-07
       0.900450   1.0407798145280999E-06  -1.0051500216971447E-06  -9.8940966280613096E-01   1.4514998559467290E-01   9.8848533525153215E-13   6.9530319002364394E-14  -5.5730144904220586E-07  -4.6500404932813682E-07
       1.000500   1.7245086064683324E-06  -4.9990016452505395E-07   1.2683071920732994E-02  -9.9991956582974217E-01  -2.5307894343552795E-13   1.4619156579742665E-12   7.7988800244936467E-07   3.9478933610494529E-07
       1.100550   2.1014154465555082E-06   4.6792728725100221E-07   9.8540974909116064E-01   1.7019877683795262E-01  -2.0558138524862102E-12  -5.7443633183495990E-13  -1.0203448849565619E-06  -2.3369638348020451E-07
       1.200600   1.8640653212331121E-06   1.6910922946421554E-06  -3.2345581323116829E-01   9.4624327328514413E-01   1.1330485161220594E-12  -2.7662750562429395E-12   1.2520083638354155E-06  -2.5776090087550825E-08
       1.300650   8.5549728522754947E-07   2.7635767468285298E-06  -8.8340015145445683E-01  -4.6861942436864201E-01   3.5302732959152650E-12   2.0631647432156619E-12  -1.4401198434087697E-06   3.8169838877471498E-07
       1.400700  -8.0715807370000574E-07   3.1935667164473246E-06   6.0205736496035145E-01  -7.9845282739627110E-01  -3.4850611979608814E-12   4.2090185503607103E-12   1.5450087681367991E-06  -8.2188566477202151E-07
       1.500750  -2.6941374033250519E-06   2.5892012129955795E-06   6.9352683043340635E-01   7.2043078622701284E-01  -4.6184531893311842E-12  -5.4539289751076581E-12  -1.5267219160428880E-06   1.3236979908582274E-06
       1.600800  -4.1490791536859890E-06   8.5412614027578182E-07  -8.2077777969270249E-01   5.7124759103449174E-01   7.9507806588496877E-12  -4.5890357486255695E-12   1.3505071699157814E-06  -1.8543922129936094E-06
       1.700850  -4.4939049935958598E-06  -1.6888579300342094E-06  -4.3467474804558726E-01  -9.0058748929429167E-01   4.0010295423997810E-12   1.0925935503558470E-11  -9.9236202273409434E-07   2.3720518154830925E-06
       1.800900  -3.2949451040376681E-06  -4.3152250013247069E-06   9.5786293739792405E-01  -2.8722559127557118E-01  -1.4350331686840967E-11   2.7544286296254938E-12   4.4381566662955333E-07  -2.8272347133645675E-06
       1.900950  -5.9491222700289855E-07  -6.0823204661745816E-06   1.3258955502849426E-01   9.9117099270912856E-01  -6.9221299699162575E-13  -1.8209735802576787E-11   2.8476583957693211E-07   3.1655456498125396E-06
       2.001001   2.9902542825102577E-06  -6.1414167820914417E-06  -9.9967822979378906E-01  -2.5364097904405213E-02   2.2420426626368339E-11   2.4483010562480201E-12  -1.1628147778041896E-06  -3.3313102918974707E-06
       2.101051   6.3762858929606619E-06  -4.0814701312865182E-06   1.8268309189513629E-01  -9.8317178294145446E-01  -6.9888140413754130E-12   2.6724039647874065E-11   2.1402928939630163E-06   3.2723829514822039E-06
       2.201101   8.3167275220881524E-06  -1.7689569793178443E-07   9.4206467256739101E-01   3.3543103128488105E-01  -3.0659235566998788E-11  -1.3180256365485921E-11  -3.1503808711756387E-06  -2.9458786185273366E-06
       2.301151   7.8313158694106583E-06   4.5743104630499528E-06  -4.7978589588486742E-01   8.7738547087105612E-01   2.1087138112052539E-11  -3.3657566317346621E-11   4.1137739766285009E-06   2.3243374644253841E-06
       2.401201   4.6166175257059231E-06   8.6752426032210807E-06  -7.9075256532474447E-01  -6.1213567465108509E-01   3.5201470210965979E-11   3.0588764160510706E-11  -4.9441295981335998E-06  -1.4015815601639094E-06
       2.501251  -7.1818571358114201E-07   1.0579921382708524E-05   7.2916874461799686E-01  -6.8433366395263617E-01  -4.1503094364014892E-11   3.4911995169806254E-11   5.5542190992873475E-06   1.9738374934748580E-07
       2.601301  -6.7076757359543189E-06   9.2398788004378673E-06   5.6079155563365057E-01   8.2795673365687039E-01  -3.2480960629466260E-11  -5.3717006537334910E-11  -5.8624145583396726E-06   1.2399109951765458E-06
       2.701351  -1.1406097870144681E-05   4.5626480415873414E-06  -9.0602779368788677E-01   4.2321748258309311E-01   6.7177629778369941E-11  -2.7502032769188833E-11   5.7992339213762487E-06  -2.8334779485660227E-06
       2.801401  -1.2996657647550323E-05  -2.3987150972856123E-06  -2.7505379213129172E-01  -9.6142845091854068E-01   1.9366007061871748E-11   8.1708197499641422E-11  -5.3137204681027813E-06   4.4811491108429662E-06
       2.901451  -1.0450017726315463E-05  -9.6347143747749768E-06   9.9277248549833097E-01  -1.2000780316747149E-01  -9.6777001343251179E-11   7.3540238568897687E-12   4.3794097125494191E-06  -6.0615124416810687E-06
       3.001501  -4.0033592453303267E-06  -1.4735432077325806E-05  -3.8040957556891027E-02   9.9927561752044036E-01   9.1025577917194789E-12  -1.1141735797859376E-10  -2.9995380556694122E-06   7.4424894665971642E-06
       3.101551   4.7361418095261182E-06  -1.5668249701204842E-05  -9.8077513144583717E-01  -1.9513782817076403E-01   1.2439130628316697E-10   3.0188593812263687E-11   1.2110071630150236E-06  -8.4915921680798580E-06
       3.201601   1.3152116731732413E-05  -1.1533128616023857E-05   3.4735196455493622E-01  -9.3773394788694031E-01  -5.5693360513642265E-11   1.3448123170611836E-10   9.1350400543921521E-07   9.0868876163627556E-06
       3.301651   1.8379751671069397E-05  -3.0270545917377093E-06   8.7122904083764985E-01   4.9087469737328954E-01  -1.4066659122236036E-10  -8.5233914544347034E-11  -3.2659249520606897E-06  -9.1276837593529289E-06
       3.401701   1.8252837343182690E-05   7.5825786241912596E-06  -6.2211483219893582E-01   7.8292449013763821E-01   1.1850539473334809E-10  -1.4202680004293811E-10   5.7062242016208130E-06   8.5440674237513472E-06
       3.501751   1.2131504529722755E-05   1.7028582480086933E-05  -6.7502984340987293E-01  -7.3778850815054620E-01   1.3745881863314047E-10   1.5529313251994026E-10  -8.0691797340355400E-06  -7.3046217548351070E-06
       3.601801   1.3096115408116059E-06   2.2028110025516645E-05   8.3500136660102153E-01  -5.5024482929259033E-01  -1.9516738225533459E-10   1.2549727923527598E-10   1.0174403199840353E-05   5.4218604069873747E-06
       3.701851  -1.1188801636088429E-05   2.0390841225970200E-05   4.1169180530303034E-01   9.1132097392626099E-01  -1.0448084064584862E-10  -2.3707179101772891E-10  -1.1839084216999725E-05  -2.9550857973288249E-06
       3.801901  -2.1425281498569774E-05   1.1885586998524006E-05  -9.6483768611264753E-01   2.6283763057560516E-01   2.7915193941130401E-10  -7.3025805021054158E-11   1.2892493137491250E-05   1.0482093167536598E-08
       3.901951  -2.5765631149683496E-05  -1.4581102407191466E-06  -1.0740691833169111E-01  -9.9421243223745503E-01   3.0481480837660224E-11   3.1900295772990805E-10  -1.3190959815172090E-05   3.2617015885995234E-06
       4.002001  -2.2131152852066042E-05  -1.5778398027760233E-05   9.9871022114030905E-01   5.0711161357137914E-02  -3.5416358734607911E-10  -2.2981412454471661E-11   1.2631897794545341E-05  -6.6729978728394776E-06
       4.102051  -1.0861544903434160E-05  -2.6472782035197721E-05  -2.0756019655664196E-01   9.7821853282858517E-01   8.6704208916710268E-11  -3.8245451944307618E-10  -1.1165495170253942E-05   1.0005660412348494E-05
       4.202101   5.1430517910851853E-06  -2.9653546399224767E-05  -9.3325013436565085E-01  -3.5921553120477984E-01   4.0187761105037190E-10   1.5997649819438076E-10   8.8029279034900146E-06  -1.3024619938613940E-05
       4.302151   2.1122566905076307E-05  -2.3513592276533472E-05   5.0188246846977835E-01  -8.6493024971641752E-01  -2.4213891915841890E-10   4.1018596158570730E-10  -5.6203134985313343E-06   1.5492138079397319E-05
       4.402201   3.1848886897764706E-05  -9.1346616045488842E-06   7.7496840451776106E-01   6.3199122246797723E-01  -4.0456701877467083E-10  -3.3218960221459426E-10   1.7580364845962063E-06  -1.7184505499721217E-05
       4.502251   3.3310102556199662E-05   9.5874561182675959E-06  -7.4628624242163832E-01   6.6561565020753932E-01   4.2818178690173792E-10  -3.8184019141018766E-10   2.5845331350071557E-06   1.7909756250460428E-05
       4.602301   2.4151918013487086E-05   2.6960062066534461E-05  -5.3960823778941192E-01  -8.4190767413249790E-01   3.3915583362575941E-10   5.2693460879382759E-10  -7.1585954397652058E-06  -1.7525032914644361E-05
       4.702351   6.3727733710258797E-06   3.7201793696451470E-05   9.1646292036835419E-01  -4.0009915057929052E-01  -6.2436261195897291E-10   2.7473328386568019E-10   1.1679203318749259E-05   1.5952021312145736E-05
       4.802401  -1.5026840137313195E-05   3.6336673039676446E-05   2.5057920908671710E-01   9.6808650949016417E-01  -1.8809463405225491E-10  -7.1621446447178716E-10  -1.5841594905594960E-05  -1.3188846554516765E-05
       4.902451  -3.3417979349430751E-05   2.3661652084158865E-05  -9.9548677418529197E-01   9.4789722130339982E-02   7.9863395410773030E-10  -7.9647829347509469E-11   1.9339811044067811E-05   9.3170154179808288E-06
       5.002501  -4.2574202557573703E-05   2.2639907452405460E-06   6.3371130159502520E-02  -9.9797817220158247E-01  -4.9962857961126372E-11   8.6807406575462043E-10  -2.1886742719222733E-05  -4.5023886134542303E-06
       5.102551  -3.8744611991914089E-05  -2.1664189249601980E-05   9.7549844023952004E-01   2.1994583893213907E-01  -9.2065085589843054E-10  -2.0008452316852554E-10   2.3234626496347301E-05  -1.0102875058955836E-06
       5.202601  -2.2088198540538623E-05  -4.0589081507860154E-05  -3.7101659402837767E-01   9.2861015166613081E-01   3.6954482356132967E-10  -9.5155702761751115E-10  -2.3194837959386235E-05   6.9091540296100965E-06
       5.302651   3.0558382059126552E-06  -4.7983981470193154E-05  -8.5848663897012556E-01  -5.1280331825763437E-01   9.5517735561323480E-10   5.5574480087305922E-10   2.1655653632419598E-05  -1.2832609294113281E-05
       5.402701   2.9244886544114240E-05  -4.0538381487024361E-05   6.4175825540729359E-01  -7.6688263311798788E-01  -7.5410575180179240E-10   9.2599254306047207E-10  -1.8596518763343073E-05   1.8391107294089151E-05
       5.502751   4.8110104184391425E-05  -1.9490734661436711E-05   6.5609035440643126E-01   7.5465474505715324E-01  -8.5967873098002912E-10  -9.5838520453028764E-10   1.4097341232478110E-05  -2.3191913924934337E-05
       5.602801   5.3005746878424163E-05   9.4204487653443445E-06  -8.4866796270785716E-01   5.2888215346716616E-01   1.1616594526586699E-09  -7.5361066258911036E-10  -8.3414902036215069E-06   2.6865209977183100E-05
       5.702851   4.1299233647415711E-05   3.7476859555209295E-05  -3.8844113765801541E-01  -9.2144560475715664E-01   6.0647248681378052E-10   1.3571831661979283E-09   1.6115407635135490E-06  -2.9089921940408895E-05
       5.802901   1.5526115566470869E-05   5.5585447532216625E-05   9.7116674944902659E-01  -2.3828151874314224E-01  -1.5384181862448942E-09   4.1746979961496122E-10   5.7226421333670612E-06   2.9617736651822920E-05
       5.902951  -1.7051016330052111E-05   5.7197674791603360E-05   8.2160675003375913E-02   9.9658742077834350E-01  -1.8603121322048610E-10  -1.6982473934057385E-09  -1.3223205205534992E-05  -2.8293864480789767E-05
       6.003002  -4.6451642010269647E-05   4.0613690820354221E-05  -9.9707171505959102E-01  -7.6014871713731905E-02   1.8281524159086127E-09   8.7494783987396309E-11   2.0410000036602834E-05   2.5073227762559367E-05
       6.103052  -6.3011866469186938E-05   9.8770032205880017E-06   2.3228721118893103E-01  -9.7260771113675215E-01  -4.0051449526692928E-10   1.9182605018319698E-09  -2.6791024526462436E-05  -2.0030865879710149E-05
       6.203102  -6.0529067346717114E-05  -2.6130320211599890E-05   9.2380776598206416E-01   3.8274608602229032E-01  -1.9584991978877087E-09  -7.4722537359017682E-10   3.1895482893181000E-05   1.3365494245923510E-05
       6.303152  -3.8502285024541023E-05  -5.6222059672954923E-05  -5.2362674035078249E-01   8.5189318817845316E-01   1.1188067859310702E-09  -1.9401697470833312E-09  -3.5307072983833393E-05  -5.3953776984817130E-06
       6.403202  -2.6796620102599510E-06  -7.0359782659605116E-05  -7.5866367272502278E-01  -6.5140412742737597E-01   1.8568649656075520E-09   1.5046533932000505E-09   3.6695090002515234E-05  -3.4539755838431103E-06
       6.503252   3.6377740400700806E-05  -6.2964216093431007E-05   7.6288111847698181E-01  -6.4645226196468875E-01  -1.8936778915790153E-09   1.7041915760518389E-09  -3.5841131140933526E-05   1.2670302263926242E-05
       6.603302   6.6380993464442898E-05  -3.5004047475642035E-05   5.1806695966420158E-01   8.5526850532879473E-01  -1.4787994969192586E-09  -2.2746582655636116E-09   3.2659537344080161E-05  -2.1682633452286732E-05
       6.703352   7.7155581103579253E-05   5.8930899093566857E-06  -9.2625479465742555E-01   3.7672045931356224E-01   2.6354626831565087E-09  -1.1778699847073137E-09  -2.7210145845628010E-05   2.9895585051946309E-05
       6.803402   6.4046846221011642E-05   4.7469548760985623E-05  -2.2594974519323058E-01  -9.7406404711119321E-01   7.9986061784359519E-10   2.9620414610659340E-09   1.9702388439444715E-05  -3.6727880979230562E-05
       6.903452   2.9760991194740902E-05   7.6485595172109104E-05   9.9750031377427384E-01  -6.9527578236869586E-02  -3.2383918723705163E-09   3.4619780631649222E-10  -1.0490218807227585E-05   4.1652532452438822E-05
       7.003502  -1.6049520156912898E-05   8.2909169648126427E-05  -8.8631918151130987E-02   9.9597755781457942E-01   1.7730477632968420E-10  -3.4479465359227301E-09   5.7781359433218771E-08  -4.4235743039482020E-05
       7.103552  -5.9460181658622454E-05   6.3329341840773085E-05  -9.6953431241853560E-01  -2.4457120946632269E-01   3.5756250425789116E-09   7.6041316125763370E-10   1.1003837256541989E-05   4.4171537037702206E-05
       7.203602  -8.6482551813896880E-05   2.2446751240673783E-05   3.9438838724067871E-01  -9.1883270811749151E-01  -1.3898447054697116E-09   3.6091761905499009E-09  -2.2027975786571025E-05  -4.1309337153954793E-05
       7.303652  -8.7542303506145871E-05  -2.7953030635461427E-05   8.4514189380899518E-01   5.3433481330885535E-01  -3.5389998518514654E-09  -2.0509081785288763E-09   3.2310581970535287E-05   3.5672215031002952E-05
       7.403702  -6.0802186902022930E-05  -7.2360248430284962E-05  -6.6090892739078766E-01   7.5030626637938747E-01   2.7280692028314180E-09  -3.3569343294709286E-09  -4.1153362496303066E-05  -2.7464232225639600E-05
       7.503752  -1.3194797456586994E-05  -9.6290064804857676E-05  -6.3669930406620956E-01  -7.7094387016783072E-01   3.0554224740575453E-09   3.4040626723658152E-09   4.7909502885812587E-05   1.7066084660317543E-05
       7.603802   4.1297165750151283E-05  -9.0973258088351442E-05   8.6168672879118990E-01  -5.0716415904041168E-01  -4.0585161134587544E-09   2.6281978451198063E-09  -5.2029086526099422E-05  -5.0190658959057327E-06
       7.703852   8.5715749039867961E-05  -5.6479156389063245E-05   3.6494249612097701E-01   9.3086742141958401E-01  -2.0723400166039463E-09  -4.6676055295152841E-09   5.3101030209280395E-05  -8.0018995069972044E-06
       7.803902   1.0538092185233089E-04  -2.1817582389444218E-06  -9.7675549669808381E-01   2.1359335875582211E-01   5.2055071902284977E-09  -1.3903162687962933E-09  -5.0888289599841352E-05   2.1224771931283728E-05
       7.903952   9.2702145718466815E-05   5.5725983521303264E-05  -5.6904093050077965E-02  -9.9820342656706351E-01   5.9054170895803809E-10   5.6469302168321578E-09   4.5353329379497050E-05  -3.3824565121458337E-05
       8.004002   4.9982511438425488E-05   9.9032806662638497E-05   9.9467530886337807E-01   1.0120444055756465E-01  -5.9690842737353256E-09  -3.1381511755509961E-10  -3.6671410962647466E-05   4.4972850462011140E-05
       8.104052  -1.0789877730335314E-05   1.1321085856377149E-04  -2.5677599535604567E-01   9.6626026138307453E-01   1.3065712856259737E-09  -6.1519102589890906E-09   2.5230084331997603E-05  -5.3889934600787683E-05
       8.204102  -7.1255456774177274E-05   9.2240984778140054E-05  -9.1367017227652503E-01  -4.0591794992186048E-01   6.1769349479073865E-09   2.3691450442078765E-09  -1.1614291668035152E-05   5.9896765565756192E-05
       8.304152  -1.1220348341978699E-04   4.0972264101954688E-05   5.4489872480173873E-01  -8.3822186325125392E-01  -3.4794091705037111E-09   6.0263873370713927E-09  -3.4224181620243455E-06  -6.2463418190798886E-05
       8.404202  -1.1964767624398931E-04  -2.5865602491253140E-05   7.4180411226140230E-01   6.7024116585061622E-01  -5.6840805846836151E-09  -4.6098158935914402E-09   1.8999025661282410E-05   6.1250924934635187E-05
       8.504252  -8.9543914742243886E-05  -8.7851762523552353E-05  -7.7880955671849372E-01   6.2683036139431392E-01   5.7266768254543576E-09  -5.1380694386649051E-09  -3.4158103997725424E-05  -5.6143312771921109E-05
       8.604302  -2.9574883618993776E-05  -1.2508844919005541E-04  -4.9617829403464497E-01  -8.6788808246457805E-01   4.3835086810384283E-09   6.7917123071359331E-09   4.7923722678140212E-05   4.7267040538813009E-05
       8.704352   4.2713864362397645E-05  -1.2455680419347365E-04   9.3524878030079606E-01  -3.5311779411689115E-01  -7.7652086670487730E-09   3.4238563321326021E-09  -5.9362685792145930E-05  -3.4995642031364697E-05
       8.804402   1.0501096909881462E-04  -8.4593201205067115E-05   2.0122909113953580E-01   9.7920727666627316E-01  -2.2698766091559797E-09  -8.6088577030962732E-09   6.7645410989523549E-05   1.9938266052779808E-05
       8.904452   1.3710091177732397E-04  -1.5967101094392899E-05  -9.9866491562634896E-01   4.4313140322045037E-02   9.2867144720759631E-09  -9.3770089848281557E-10  -7.2102762688831926E-05  -2.9119133697664790E-06
       9.004502   1.2738762799644349E-04   6.0946449414833407E-05   1.1370351831405237E-01  -9.9313622431868886E-01  -5.5206299687943206E-10   9.7644241719985203E-09   7.2275317437422954E-05  -1.5101596793258937E-05
