# population in each right-qubit level over  time for $\ket{\Psi(t=0)} = \ket{00}$ (integrated over all cavity levels)
#        t [ns]            0            1            2            3            4            5
       0.000000  1.00000E+00  0.00000E+00  0.00000E+00  0.00000E+00  0.00000E+00  0.00000E+00
       0.200100  1.00000E+00  2.73416E-12  3.74671E-24  3.38861E-36  2.24754E-48  1.15181E-60
       0.400200  1.00000E+00  2.95086E-10  4.38221E-20  4.29848E-30  3.08391E-40  1.69929E-50
       0.600300  1.00000E+00  3.84648E-09  7.52711E-18  9.70740E-27  9.01950E-36  6.26547E-45
       0.800400  1.00000E+00  2.34322E-08  2.83468E-16  2.24906E-24  1.25547E-32  5.03702E-41
       1.000500  1.00000E+00  9.50294E-08  4.74587E-15  1.54293E-22  3.42098E-30  5.19298E-38
       1.200600  1.00000E+00  2.97958E-07  4.76156E-14  4.90269E-21  3.31372E-28  1.45108E-35
       1.400700  9.99999E-01  7.80537E-07  3.34210E-13  9.09553E-20  1.55351E-26  1.61973E-33
       1.600800  9.99998E-01  1.78772E-06  1.79658E-12  1.12775E-18  4.21951E-25  9.05958E-32
       1.800900  9.99996E-01  3.68487E-06  7.83456E-12  1.01797E-17  7.43903E-24  2.93115E-30
       2.001001  9.99993E-01  6.97061E-06  2.88166E-11  7.08578E-17  9.18700E-23  6.04112E-29
       2.201101  9.99988E-01  1.22723E-05  9.19141E-11  3.96089E-16  8.38494E-22  8.48888E-28
       2.401201  9.99980E-01  2.03207E-05  2.59539E-10  1.83179E-15  5.88181E-21  8.54813E-27
       2.601301  9.99968E-01  3.19039E-05  6.59220E-10  7.16821E-15  3.26650E-20  6.40660E-26
       2.801401  9.99952E-01  4.78078E-05  1.52538E-09  2.41535E-14  1.46981E-19  3.68171E-25
       3.001501  9.99931E-01  6.87507E-05  3.24907E-09  7.10490E-14  5.45914E-19  1.66203E-24
       3.201601  9.99905E-01  9.53266E-05  6.42597E-09  1.84465E-13  1.69952E-18  6.01423E-24
       3.401701  9.99872E-01  1.27966E-04  1.18880E-08  4.26433E-13  4.49243E-18  1.77504E-23
       3.601801  9.99833E-01  1.66925E-04  2.07020E-08  8.83864E-13  1.01951E-17  4.33819E-23
       3.801901  9.99788E-01  2.12317E-04  3.41225E-08  1.65150E-12  2.00548E-17  8.89964E-23
       4.002001  9.99736E-01  2.64181E-04  5.34943E-08  2.79373E-12  3.44890E-17  1.55219E-22
       4.202101  9.99677E-01  3.22593E-04  8.01169E-08  4.29408E-12  5.22873E-17  2.33210E-22
       4.402201  9.99612E-01  3.87809E-04  1.15097E-07  6.02054E-12  7.05445E-17  3.06546E-22
       4.602301  9.99539E-01  4.60429E-04  1.59235E-07  7.74859E-12  8.58182E-17  3.59928E-22
       4.802401  9.99458E-01  5.41562E-04  2.13004E-07  9.27728E-12  9.62234E-17  3.89453E-22
       5.002501  9.99367E-01  6.32958E-04  2.76698E-07  1.06391E-11  1.03671E-16  4.08976E-22
       5.202601  9.99263E-01  7.37046E-04  3.50842E-07  1.23513E-11  1.16401E-16  4.59088E-22
       5.402701  9.99143E-01  8.56837E-04  4.36952E-07  1.56146E-11  1.54722E-16  6.53123E-22
       5.602801  9.99004E-01  9.95623E-04  5.38760E-07  2.23794E-11  2.65389E-16  1.35076E-21
       5.802901  9.98843E-01  1.15645E-03  6.63993E-07  3.53012E-11  5.48474E-16  3.64559E-21
       6.003002  9.98658E-01  1.34134E-03  8.26736E-07  5.78095E-11  1.19530E-15  1.04412E-20
       6.203102  9.98448E-01  1.55046E-03  1.05026E-06  9.47873E-11  2.54140E-15  2.84328E-20
       6.403202  9.98217E-01  1.78122E-03  1.36997E-06  1.54643E-10  5.18427E-15  7.19061E-20
       6.603302  9.97970E-01  2.02771E-03  1.83606E-06  2.53775E-10  1.03338E-14  1.72848E-19
       6.803402  9.97717E-01  2.28053E-03  2.51508E-06  4.24467E-10  2.07595E-14  4.13144E-19
       7.003502  9.97469E-01  2.52718E-03  3.49019E-06  7.27156E-10  4.29445E-14  1.01893E-18
       7.203602  9.97242E-01  2.75298E-03  4.85968E-06  1.26776E-09  9.13264E-14  2.59971E-18
       7.403702  9.97051E-01  2.94243E-03  6.73395E-06  2.22061E-09  1.95837E-13  6.68583E-18
       7.603802  9.96910E-01  3.08087E-03  9.23127E-06  3.85725E-09  4.14459E-13  1.68447E-17
       7.803902  9.96831E-01  3.15624E-03  1.24726E-05  6.58088E-09  8.53268E-13  4.08883E-17
       8.004002  9.96823E-01  3.16061E-03  1.65752E-05  1.09647E-08  1.69727E-12  9.50867E-17
       8.204102  9.96887E-01  3.09147E-03  2.16452E-05  1.77895E-08  3.25587E-12  2.11935E-16
       8.404202  9.97020E-01  2.95270E-03  2.77676E-05  2.80731E-08  6.02649E-12  4.53885E-16
       8.604302  9.97210E-01  2.75513E-03  3.49949E-05  4.30814E-08  1.07776E-11  9.36434E-16
       8.804402  9.97440E-01  2.51675E-03  4.33350E-05  6.43132E-08  1.86478E-11  1.86453E-15
       9.004502  9.97685E-01  2.26261E-03  5.27434E-05  9.34561E-08  3.12500E-11  3.58535E-15
       9.204602  9.97912E-01  2.02441E-03  6.31236E-05  1.32318E-07  5.07573E-11  6.65622E-15
       9.404702  9.98086E-01  1.83949E-03  7.43479E-05  1.82751E-07  7.99361E-11  1.19167E-14
       9.604802  9.98164E-01  1.74941E-03  8.63047E-05  2.46588E-07  1.22081E-10  2.05377E-14
       9.804902  9.98103E-01  1.79779E-03  9.89846E-05  3.25616E-07  1.80795E-10  3.39994E-14
      10.005003  9.97859E-01  2.02766E-03  1.12607E-04  4.21610E-07  2.59601E-10  5.39453E-14
      10.205103  9.97393E-01  2.47860E-03  1.27783E-04  5.36504E-07  3.61454E-10  8.19041E-14
      10.405203  9.96669E-01  3.18417E-03  1.45694E-04  6.72733E-07  4.88426E-10  1.18982E-13
      10.605303  9.95661E-01  4.17004E-03  1.68255E-04  8.33738E-07  6.41814E-10  1.65713E-13
      10.805403  9.94348E-01  5.45278E-03  1.98243E-04  1.02447E-06  8.22694E-10  2.22159E-13
      11.005503  9.92720E-01  7.03945E-03  2.39346E-04  1.25171E-06  1.03256E-09  2.88157E-13
      11.205603  9.90775E-01  8.92743E-03  2.96129E-04  1.52418E-06  1.27385E-09  3.63566E-13
      11.405703  9.88520E-01  1.11044E-02  3.73902E-04  1.85286E-06  1.55071E-09  4.48599E-13
      11.605803  9.85972E-01  1.35477E-02  4.78467E-04  2.25178E-06  1.87061E-09  5.44456E-13
      11.805903  9.83157E-01  1.62247E-02  6.15768E-04  2.73941E-06  2.24650E-09  6.54180E-13
      12.006003  9.80113E-01  1.90923E-02  7.91445E-04  3.33915E-06  2.69797E-09  7.83251E-13
      12.206103  9.76887E-01  2.20989E-02  1.01036E-03  4.07789E-06  3.24991E-09  9.39261E-13
      12.406203  9.73533E-01  2.51860E-02  1.27616E-03  4.98129E-06  3.92718E-09  1.13005E-12
      12.606303  9.70114E-01  2.82894E-02  1.59089E-03  6.06664E-06  4.74504E-09  1.35982E-12
      12.806403  9.66697E-01  3.13405E-02  1.95469E-03  7.33444E-06  5.69675E-09  1.62391E-12
      13.006503  9.63358E-01  3.42676E-02  2.36562E-03  8.76093E-06  6.74348E-09  1.90501E-12
      13.206603  9.60172E-01  3.69982E-02  2.81960E-03  1.02944E-05  7.81343E-09  2.17443E-12
      13.406703  9.57215E-01  3.94629E-02  3.31055E-03  1.18583E-05  8.81345E-09  2.39889E-12
      13.606803  9.54558E-01  4.15981E-02  3.83068E-03  1.33619E-05  9.64903E-09  2.54962E-12
      13.806903  9.52265E-01  4.33497E-02  4.37091E-03  1.47171E-05  1.02457E-08  2.60984E-12
      14.007004  9.50388E-01  4.46750E-02  4.92150E-03  1.58573E-05  1.05688E-08  2.57995E-12
      14.207104  9.48967E-01  4.55433E-02  5.47277E-03  1.67562E-05  1.06399E-08  2.47999E-12
      14.407204  9.48034E-01  4.59329E-02  6.01586E-03  1.74428E-05  1.05412E-08  2.34611E-12
      14.607304  9.47611E-01  4.58273E-02  6.54334E-03  1.80061E-05  1.03984E-08  2.21994E-12
      14.807404  9.47719E-01  4.52130E-02  7.04942E-03  1.85828E-05  1.03484E-08  2.13716E-12
      15.007504  9.48371E-01  4.40802E-02  7.52993E-03  1.93288E-05  1.05153E-08  2.12366E-12
      15.207604  9.49571E-01  4.24270E-02  7.98192E-03  2.03804E-05  1.10008E-08  2.19954E-12
      15.407704  9.51310E-01  4.02646E-02  8.40322E-03  2.18197E-05  1.18786E-08  2.38248E-12
      15.607804  9.53562E-01  3.76222E-02  8.79187E-03  2.36522E-05  1.31750E-08  2.68292E-12
      15.807904  9.56279E-01  3.45497E-02  9.14564E-03  2.58007E-05  1.48433E-08  3.09452E-12
      16.008004  9.59391E-01  3.11191E-02  9.46162E-03  2.81164E-05  1.67611E-08  3.59095E-12
      16.208104  9.62813E-01  2.74210E-02  9.73604E-03  3.04057E-05  1.87633E-08  4.13611E-12
      16.408204  9.66443E-01  2.35602E-02  9.96437E-03  3.24747E-05  2.07037E-08  4.70371E-12
      16.608304  9.70175E-01  1.96486E-02  1.01417E-02  3.41886E-05  2.25147E-08  5.29498E-12
      16.808404  9.73899E-01  1.58025E-02  1.02633E-02  3.55357E-05  2.42442E-08  5.94550E-12
      17.008504  9.77496E-01  1.21419E-02  1.03253E-02  3.66744E-05  2.60714E-08  6.72619E-12
      17.208604  9.80843E-01  8.79388E-03  1.03253E-02  3.79404E-05  2.83394E-08  7.76035E-12
      17.408704  9.83802E-01  5.89523E-03  1.02634E-02  3.97977E-05  3.16296E-08  9.28326E-12
      17.608804  9.86221E-01  3.59316E-03  1.01430E-02  4.27364E-05  3.68231E-08  1.17405E-11
      17.808904  9.87939E-01  2.04127E-03  9.97249E-03  4.71361E-05  4.50135E-08  1.58446E-11
      18.009005  9.88790E-01  1.39029E-03  9.76619E-03  5.31313E-05  5.71593E-08  2.24522E-11
      18.209105  9.88620E-01  1.77383E-03  9.54565E-03  6.05282E-05  7.35623E-08  3.21916E-11
      18.409205  9.87297E-01  3.29352E-03  9.34057E-03  6.88245E-05  9.34836E-08  4.50111E-11
      18.609305  9.84725E-01  6.00877E-03  9.18908E-03  7.73523E-05  1.15250E-07  6.00304E-11
      18.809405  9.80844E-01  9.93331E-03  9.13690E-03  8.54956E-05  1.36889E-07  7.59020E-11
      19.009505  9.75636E-01  1.50350E-02  9.23546E-03  9.28952E-05  1.56849E-07  9.13587E-11
      19.209605  9.69126E-01  2.12353E-02  9.53903E-03  9.95594E-05  1.74290E-07  1.05422E-10
      19.409705  9.61387E-01  2.84062E-02  1.01010E-02  1.05870E-04  1.88987E-07  1.17273E-10
      19.609805  9.52548E-01  3.63694E-02  1.09697E-02  1.12508E-04  2.01359E-07  1.26366E-10
      19.809905  9.42799E-01  4.48968E-02  1.21834E-02  1.20332E-04  2.12760E-07  1.33054E-10
      20.010005  9.32385E-01  5.37189E-02  1.37659E-02  1.30175E-04  2.25353E-07  1.38886E-10
      20.210105  9.21592E-01  6.25432E-02  1.57224E-02  1.42563E-04  2.40959E-07  1.45510E-10
      20.410205  9.10720E-01  7.10830E-02  1.80391E-02  1.57417E-04  2.59412E-07  1.52860E-10
      20.610305  9.00062E-01  7.90812E-02  2.06824E-02  1.73862E-04  2.77856E-07  1.58544E-10
      20.810405  8.89882E-01  8.63257E-02  2.36018E-02  1.90273E-04  2.91880E-07  1.59481E-10
      21.010505  8.80409E-01  9.26539E-02  2.67324E-02  2.04616E-04  2.97752E-07  1.54126E-10
      21.210605  8.71837E-01  9.79482E-02  2.99994E-02  2.14981E-04  2.93755E-07  1.42915E-10
      21.410705  8.64327E-01  1.02131E-01  3.33220E-02  2.20103E-04  2.79952E-07  1.27239E-10
      21.610805  8.58002E-01  1.05161E-01  3.66174E-02  2.19698E-04  2.57616E-07  1.08607E-10
      21.810905  8.52947E-01  1.07033E-01  3.98056E-02  2.14496E-04  2.29359E-07  8.88393E-11
      22.011006  8.49204E-01  1.07776E-01  4.28132E-02  2.05973E-04  1.99133E-07  7.02888E-11
      22.211106  8.46775E-01  1.07452E-01  4.55762E-02  1.95890E-04  1.71042E-07  5.49415E-11
      22.411206  8.45618E-01  1.06152E-01  4.80436E-02  1.85840E-04  1.47645E-07  4.34547E-11
      22.611306  8.45661E-01  1.03983E-01  5.01787E-02  1.76977E-04  1.29413E-07  3.52645E-11
      22.811406  8.46816E-01  1.01054E-01  5.19598E-02  1.69982E-04  1.15729E-07  2.94594E-11
      23.011506  8.48992E-01  9.74635E-02  5.33790E-02  1.65160E-04  1.06082E-07  2.54873E-11
      23.211606  8.52103E-01  9.32947E-02  5.44394E-02  1.62546E-04  1.00259E-07  2.30963E-11
      23.411706  8.56063E-01  8.86241E-02  5.51512E-02  1.61957E-04  9.77987E-08  2.19802E-11
      23.611806  8.60779E-01  8.35293E-02  5.55285E-02  1.63024E-04  9.77556E-08  2.17067E-11
      23.811906  8.66151E-01  7.80966E-02  5.55870E-02  1.65243E-04  9.91571E-08  2.18933E-11
      24.012006  8.72063E-01  7.24267E-02  5.53419E-02  1.68031E-04  1.01512E-07  2.24162E-11
      24.212106  8.78384E-01  6.66371E-02  5.48077E-02  1.70788E-04  1.04700E-07  2.33452E-11
      24.412206  8.84969E-01  6.08595E-02  5.39983E-02  1.72977E-04  1.08445E-07  2.46562E-11
      24.612306  8.91664E-01  5.52334E-02  5.29282E-02  1.74239E-04  1.12143E-07  2.61558E-11
      24.812406  8.98311E-01  4.98987E-02  5.16154E-02  1.74529E-04  1.15393E-07  2.76881E-11
      25.012506  9.04751E-01  4.49912E-02  5.00832E-02  1.74222E-04  1.18644E-07  2.94063E-11
      25.212606  9.10819E-01  4.06435E-02  4.83635E-02  1.74099E-04  1.23145E-07  3.18231E-11
      25.412706  9.16341E-01  3.69853E-02  4.64987E-02  1.75183E-04  1.30248E-07  3.55000E-11
      25.612806  9.21135E-01  3.41434E-02  4.45431E-02  1.78463E-04  1.40952E-07  4.08371E-11
      25.812906  9.25015E-01  3.22362E-02  4.25639E-02  1.84609E-04  1.56135E-07  4.82868E-11
      26.013007  9.27799E-01  3.13668E-02  4.06408E-02  1.93749E-04  1.76794E-07  5.85993E-11
      26.213107  9.29317E-01  3.16127E-02  3.88646E-02  2.05381E-04  2.03355E-07  7.25223E-11
      26.413207  9.29431E-01  3.30156E-02  3.73344E-02  2.18455E-04  2.34430E-07  8.98174E-11
      26.613307  9.28039E-01  3.55760E-02  3.61527E-02  2.31638E-04  2.66621E-07  1.08694E-10
      26.813407  9.25080E-01  3.92561E-02  3.54202E-02  2.43715E-04  2.96129E-07  1.26782E-10
      27.013507  9.20528E-01  4.39894E-02  3.52282E-02  2.53985E-04  3.20846E-07  1.42661E-10
      27.213607  9.14397E-01  4.96881E-02  3.56520E-02  2.62514E-04  3.40824E-07  1.56230E-10
      27.413707  9.06741E-01  5.62451E-02  3.67437E-02  2.70168E-04  3.56959E-07  1.67587E-10
      27.613807  8.97665E-01  6.35292E-02  3.85266E-02  2.78403E-04  3.70012E-07  1.76067E-10
      27.813907  8.87340E-01  7.13799E-02  4.09907E-02  2.88843E-04  3.81373E-07  1.81347E-10
      28.014007  8.75998E-01  7.96083E-02  4.40909E-02  3.02706E-04  3.93930E-07  1.85122E-10
      28.214107  8.63924E-01  8.80073E-02  4.77478E-02  3.20187E-04  4.10294E-07  1.89866E-10
      28.414207  8.51437E-01  9.63708E-02  5.18521E-02  3.40014E-04  4.29041E-07  1.95213E-10
      28.614307  8.38853E-01  1.04516E-01  5.62713E-02  3.59443E-04  4.43508E-07  1.96831E-10
      28.814407  8.26468E-01  1.12298E-01  6.08588E-02  3.74909E-04  4.45955E-07  1.90386E-10
      29.014507  8.14539E-01  1.19614E-01  6.54635E-02  3.83201E-04  4.33361E-07  1.75968E-10
      29.214607  8.03289E-01  1.26389E-01  6.99387E-02  3.82720E-04  4.08599E-07  1.57317E-10
      29.414707  7.92922E-01  1.32554E-01  7.41496E-02  3.74206E-04  3.76485E-07  1.37755E-10
      29.614807  7.83625E-01  1.38034E-01  7.79797E-02  3.60541E-04  3.40672E-07  1.18331E-10
      29.814907  7.75573E-01  1.42747E-01  8.13343E-02  3.45731E-04  3.04921E-07  9.97648E-11
      30.015008  7.68919E-01  1.46604E-01  8.41439E-02  3.33498E-04  2.74894E-07  8.44731E-11
      30.215108  7.63780E-01  1.49529E-01  8.63644E-02  3.26075E-04  2.55728E-07  7.49307E-11
      30.415208  7.60231E-01  1.51469E-01  8.79760E-02  3.23627E-04  2.47558E-07  7.07293E-11
      30.615308  7.58299E-01  1.52396E-01  8.89797E-02  3.24467E-04  2.45050E-07  6.87736E-11
      30.815408  7.57970E-01  1.52309E-01  8.93943E-02  3.25921E-04  2.42115E-07  6.62587E-11
      31.015508  7.59201E-01  1.51221E-01  8.92517E-02  3.25412E-04  2.36414E-07  6.27566E-11
      31.215608  7.61933E-01  1.49153E-01  8.85923E-02  3.21317E-04  2.29066E-07  5.93751E-11
      31.415708  7.66087E-01  1.46140E-01  8.74597E-02  3.13329E-04  2.21128E-07  5.66757E-11
      31.615808  7.71563E-01  1.42238E-01  8.58965E-02  3.02348E-04  2.11846E-07  5.40101E-11
      31.815908  7.78229E-01  1.37539E-01  8.39419E-02  2.90058E-04  2.00531E-07  5.06221E-11
      32.016008  7.85916E-01  1.32175E-01  8.16304E-02  2.78393E-04  1.89045E-07  4.70000E-11
      32.216108  7.94414E-01  1.26323E-01  7.89933E-02  2.69018E-04  1.81333E-07  4.48172E-11
      32.416208  8.03484E-01  1.20192E-01  7.60607E-02  2.62940E-04  1.80219E-07  4.53533E-11
      32.616308  8.12860E-01  1.14014E-01  7.28653E-02  2.60318E-04  1.85075E-07  4.82781E-11
      32.816408  8.22271E-01  1.08022E-01  6.94465E-02  2.60502E-04  1.92999E-07  5.22254E-11
      33.016508  8.31444E-01  1.02439E-01  6.58543E-02  2.62267E-04  2.01981E-07  5.64002E-11
      33.216608  8.40117E-01  9.74661E-02  6.21524E-02  2.64158E-04  2.12151E-07  6.13159E-11
      33.416708  8.48037E-01  9.32785E-02  5.84198E-02  2.64852E-04  2.23710E-07  6.76212E-11
      33.616808  8.54965E-01  9.00207E-02  5.47506E-02  2.63460E-04  2.34554E-07  7.44414E-11
      33.816908  8.60682E-01  8.78049E-02  5.12527E-02  2.59706E-04  2.41213E-07  7.96731E-11
      34.017009  8.64995E-01  8.67066E-02  4.80444E-02  2.53938E-04  2.42317E-07  8.21488E-11
      34.217109  8.67741E-01  8.67612E-02  4.52506E-02  2.46990E-04  2.40183E-07  8.30195E-11
      34.417209  8.68803E-01  8.79601E-02  4.29967E-02  2.39960E-04  2.38321E-07  8.44038E-11
      34.617309  8.68112E-01  9.02523E-02  4.14017E-02  2.34014E-04  2.37973E-07  8.68028E-11
      34.817409  8.65646E-01  9.35532E-02  4.05700E-02  2.30261E-04  2.38094E-07  8.88896E-11
      35.017509  8.61426E-01  9.77611E-02  4.05830E-02  2.29713E-04  2.38605E-07  9.00487E-11
      35.217609  8.55502E-01  1.02773E-01  4.14907E-02  2.33274E-04  2.42424E-07  9.20371E-11
      35.417709  8.47953E-01  1.08500E-01  4.33049E-02  2.41718E-04  2.53306E-07  9.74283E-11
      35.617809  8.38883E-01  1.14867E-01  4.59944E-02  2.55581E-04  2.72104E-07  1.06622E-10
      35.817909  8.28432E-01  1.21810E-01  4.94831E-02  2.74930E-04  2.96305E-07  1.17390E-10
      36.018009  8.16781E-01  1.29267E-01  5.36520E-02  2.99019E-04  3.23282E-07  1.27858E-10
      36.218109  8.04163E-01  1.37166E-01  5.83443E-02  3.25966E-04  3.52152E-07  1.38388E-10
      36.418209  7.90849E-01  1.45423E-01  6.33741E-02  3.52692E-04  3.80794E-07  1.49011E-10
      36.618309  7.77135E-01  1.53951E-01  6.85377E-02  3.75340E-04  4.02397E-07  1.56186E-10
      36.818409  7.63318E-01  1.62665E-01  7.36264E-02  3.90203E-04  4.08295E-07  1.54848E-10
      37.018509  7.49679E-01  1.71486E-01  7.84396E-02  3.94951E-04  3.95454E-07  1.44086E-10
      37.218609  7.36481E-01  1.80332E-01  8.27969E-02  3.89642E-04  3.69380E-07  1.28362E-10
      37.418709  7.23971E-01  1.89104E-01  8.65485E-02  3.77017E-04  3.38760E-07  1.12765E-10
      37.618809  7.12387E-01  1.97669E-01  8.95824E-02  3.61809E-04  3.09363E-07  9.91607E-11
      37.818909  7.01970E-01  2.05852E-01  9.18291E-02  3.49256E-04  2.84617E-07  8.76199E-11
      38.019010  6.92959E-01  2.13436E-01  9.32609E-02  3.43370E-04  2.69311E-07  7.98324E-11
      38.219110  6.85582E-01  2.20184E-01  9.38882E-02  3.45624E-04  2.68404E-07  7.85644E-11
      38.419210  6.80034E-01  2.25859E-01  9.37513E-02  3.54548E-04  2.81343E-07  8.37179E-11
      38.619310  6.76466E-01  2.30255E-01  9.29115E-02  3.66363E-04  3.00033E-07  9.10947E-11
      38.819410  6.74972E-01  2.33210E-01  9.14415E-02  3.76339E-04  3.14229E-07  9.58310E-11
      39.019510  6.75589E-01  2.34612E-01  8.94181E-02  3.80308E-04  3.18530E-07  9.62223E-11
      39.219610  6.78309E-01  2.34399E-01  8.69157E-02  3.75788E-04  3.13640E-07  9.37266E-11
      39.419710  6.83069E-01  2.32567E-01  8.40015E-02  3.62435E-04  3.02041E-07  8.99918E-11
      39.619810  6.89753E-01  2.29172E-01  8.07332E-02  3.41877E-04  2.84375E-07  8.48983E-11
      39.819910  6.98181E-01  2.24343E-01  7.71585E-02  3.17096E-04  2.60590E-07  7.74956E-11
      40.020010  7.08106E-01  2.18286E-01  7.33160E-02  2.91615E-04  2.33448E-07  6.82764E-11
      40.220110  7.19214E-01  2.11278E-01  6.92387E-02  2.68664E-04  2.09253E-07  6.00026E-11
      40.420210  7.31137E-01  2.03654E-01  6.49580E-02  2.50504E-04  1.94201E-07  5.58096E-11
      40.620310  7.43474E-01  1.95780E-01  6.05086E-02  2.38025E-04  1.89997E-07  5.65389E-11
      40.820410  7.55817E-01  1.88018E-01  5.59338E-02  2.30713E-04  1.93398E-07  6.03631E-11
      41.020510  7.67777E-01  1.80705E-01  5.12907E-02  2.26937E-04  1.99985E-07  6.50263E-11
      41.220610  7.78992E-01  1.74129E-01  4.66536E-02  2.24478E-04  2.07648E-07  6.99750E-11
      41.420710  7.89134E-01  1.68530E-01  4.21147E-02  2.21153E-04  2.15917E-07  7.58408E-11
      41.620810  7.97910E-01  1.64092E-01  3.77826E-02  2.15377E-04  2.22816E-07  8.20389E-11
      41.820910  8.05063E-01  1.60951E-01  3.37787E-02  2.06534E-04  2.24279E-07  8.59483E-11
