#       sigma(Omega) [%]             avg fid (jz)         avg fid (stirap)          avg fid (mixed)
0.000000000000000000e+00 9.991440000000000321e-01 9.952969999999999873e-01 9.989500000000000046e-01
3.299999999999999982e-03 9.991440000000000321e-01 9.952959999999999585e-01 9.989510000000000334e-01
6.700000000000000226e-03 9.991440000000000321e-01 9.952959999999999585e-01 9.989500000000000046e-01
1.000000000000000021e-02 9.991440000000000321e-01 9.952900000000000080e-01 9.989500000000000046e-01
1.329999999999999932e-02 9.991440000000000321e-01 9.952600000000000335e-01 9.989500000000000046e-01
1.669999999999999957e-02 9.991430000000000033e-01 9.952149999999999608e-01 9.989489999999999759e-01
2.000000000000000042e-02 9.991430000000000033e-01 9.951590000000000158e-01 9.989489999999999759e-01
2.330000000000000127e-02 9.991419999999999746e-01 9.950919999999999765e-01 9.989479999999999471e-01
2.670000000000000151e-02 9.991409999999999458e-01 9.950160000000000116e-01 9.989470000000000294e-01
2.999999999999999889e-02 9.991389999999999993e-01 9.949289999999999523e-01 9.989460000000000006e-01
3.330000000000000321e-02 9.991379999999999706e-01 9.948320000000000496e-01 9.989449999999999719e-01
3.670000000000000345e-02 9.991370000000000529e-01 9.947249999999999703e-01 9.989430000000000254e-01
4.000000000000000083e-02 9.991349999999999953e-01 9.946070000000000189e-01 9.989419999999999966e-01
4.329999999999999821e-02 9.991330000000000489e-01 9.944800000000000306e-01 9.989400000000000501e-01
4.669999999999999846e-02 9.991309999999999913e-01 9.943419999999999481e-01 9.989379999999999926e-01
5.000000000000000278e-02 9.991290000000000449e-01 9.941940000000000222e-01 9.989360000000000461e-01
5.330000000000000016e-02 9.991269999999999873e-01 9.940360000000000307e-01 9.989339999999999886e-01
5.670000000000000040e-02 9.991240000000000121e-01 9.938679999999999737e-01 9.989320000000000421e-01
5.999999999999999778e-02 9.991219999999999546e-01 9.936899999999999622e-01 9.989299999999999846e-01
6.329999999999999516e-02 9.991189999999999793e-01 9.935009999999999675e-01 9.989280000000000381e-01
6.669999999999999540e-02 9.991160000000000041e-01 9.933030000000000470e-01 9.989249999999999519e-01
7.000000000000000666e-02 9.991130000000000289e-01 9.930949999999999500e-01 9.989230000000000054e-01
7.330000000000000404e-02 9.991100000000000536e-01 9.928770000000000095e-01 9.989200000000000301e-01
7.670000000000000429e-02 9.991069999999999673e-01 9.926479999999999748e-01 9.989170000000000549e-01
8.000000000000000167e-02 9.991029999999999633e-01 9.924100000000000144e-01 9.989139999999999686e-01
8.329999999999999905e-02 9.990999999999999881e-01 9.921619999999999884e-01 9.989109999999999934e-01
8.669999999999999929e-02 9.990959999999999841e-01 9.919040000000000079e-01 9.989069999999999894e-01
8.999999999999999667e-02 9.990919999999999801e-01 9.916359999999999619e-01 9.989040000000000141e-01
9.329999999999999405e-02 9.990879999999999761e-01 9.913579999999999615e-01 9.989000000000000101e-01
9.669999999999999429e-02 9.990839999999999721e-01 9.910710000000000353e-01 9.988970000000000349e-01
1.000000000000000056e-01 9.990799999999999681e-01 9.907730000000000148e-01 9.988930000000000309e-01
1.033000000000000029e-01 9.990750000000000464e-01 9.904659999999999576e-01 9.988890000000000269e-01
1.067000000000000032e-01 9.990710000000000424e-01 9.901489999999999458e-01 9.988850000000000229e-01
1.100000000000000006e-01 9.990660000000000096e-01 9.898230000000000084e-01 9.988810000000000189e-01
1.132999999999999979e-01 9.990609999999999769e-01 9.894859999999999767e-01 9.988759999999999861e-01
1.166999999999999982e-01 9.990560000000000551e-01 9.891400000000000192e-01 9.988719999999999821e-01
1.199999999999999956e-01 9.990510000000000224e-01 9.887850000000000250e-01 9.988669999999999494e-01
1.233000000000000068e-01 9.990459999999999896e-01 9.884199999999999653e-01 9.988629999999999454e-01
1.267000000000000071e-01 9.990400000000000391e-01 9.880449999999999511e-01 9.988580000000000236e-01
1.300000000000000044e-01 9.990350000000000064e-01 9.876610000000000111e-01 9.988529999999999909e-01
1.333000000000000018e-01 9.990289999999999448e-01 9.872680000000000344e-01 9.988479999999999581e-01
1.366999999999999882e-01 9.990229999999999944e-01 9.868649999999999922e-01 9.988430000000000364e-01
1.400000000000000133e-01 9.990170000000000439e-01 9.864519999999999955e-01 9.988369999999999749e-01
1.433000000000000107e-01 9.990109999999999824e-01 9.860309999999999908e-01 9.988320000000000531e-01
1.466999999999999971e-01 9.990040000000000031e-01 9.856000000000000316e-01 9.988259999999999916e-01
1.499999999999999944e-01 9.989980000000000526e-01 9.851600000000000357e-01 9.988200000000000411e-01
1.532999999999999918e-01 9.989909999999999624e-01 9.847099999999999742e-01 9.988150000000000084e-01
1.567000000000000060e-01 9.989839999999999831e-01 9.842520000000000158e-01 9.988089999999999469e-01
1.600000000000000033e-01 9.989780000000000326e-01 9.837839999999999918e-01 9.988019999999999676e-01
1.633000000000000007e-01 9.989700000000000246e-01 9.833070000000000421e-01 9.987960000000000171e-01
1.666999999999999871e-01 9.989630000000000454e-01 9.828219999999999734e-01 9.987899999999999556e-01
1.700000000000000122e-01 9.989559999999999551e-01 9.823269999999999502e-01 9.987829999999999764e-01
1.733000000000000096e-01 9.989479999999999471e-01 9.818230000000000013e-01 9.987770000000000259e-01
1.766999999999999960e-01 9.989409999999999679e-01 9.813110000000000444e-01 9.987700000000000466e-01
1.799999999999999933e-01 9.989329999999999599e-01 9.807900000000000507e-01 9.987629999999999564e-01
1.832999999999999907e-01 9.989249999999999519e-01 9.802589999999999915e-01 9.987559999999999771e-01
1.867000000000000048e-01 9.989170000000000549e-01 9.797209999999999530e-01 9.987489999999999979e-01
1.900000000000000022e-01 9.989090000000000469e-01 9.791729999999999601e-01 9.987420000000000186e-01
1.932999999999999996e-01 9.989000000000000101e-01 9.786169999999999591e-01 9.987340000000000106e-01
1.967000000000000137e-01 9.988920000000000021e-01 9.780529999999999502e-01 9.987270000000000314e-01
2.000000000000000111e-01 9.988829999999999654e-01 9.774800000000000155e-01 9.987190000000000234e-01
2.033000000000000085e-01 9.988740000000000396e-01 9.768980000000000441e-01 9.987110000000000154e-01
2.066999999999999948e-01 9.988650000000000029e-01 9.763079999999999536e-01 9.987030000000000074e-01
2.099999999999999922e-01 9.988559999999999661e-01 9.757099999999999662e-01 9.986949999999999994e-01
2.132999999999999896e-01 9.988470000000000404e-01 9.751039999999999708e-01 9.986869999999999914e-01
2.167000000000000037e-01 9.988380000000000036e-01 9.744890000000000496e-01 9.986789999999999834e-01
2.200000000000000011e-01 9.988280000000000491e-01 9.738660000000000094e-01 9.986699999999999466e-01
2.232999999999999985e-01 9.988179999999999836e-01 9.732359999999999900e-01 9.986620000000000497e-01
2.267000000000000126e-01 9.988089999999999469e-01 9.725970000000000448e-01 9.986530000000000129e-01
2.300000000000000100e-01 9.987989999999999924e-01 9.719499999999999806e-01 9.986439999999999761e-01
2.333000000000000074e-01 9.987880000000000091e-01 9.712950000000000195e-01 9.986350000000000504e-01
2.366999999999999937e-01 9.987780000000000546e-01 9.706329999999999680e-01 9.986260000000000137e-01
2.399999999999999911e-01 9.987679999999999891e-01 9.699619999999999909e-01 9.986169999999999769e-01
2.432999999999999885e-01 9.987570000000000059e-01 9.692840000000000344e-01 9.986080000000000512e-01
2.467000000000000026e-01 9.987470000000000514e-01 9.685989999999999878e-01 9.985979999999999857e-01
2.500000000000000000e-01 9.987359999999999571e-01 9.679050000000000153e-01 9.985889999999999489e-01
2.533000000000000251e-01 9.987249999999999739e-01 9.672049999999999814e-01 9.985789999999999944e-01
2.566999999999999837e-01 9.987139999999999906e-01 9.664960000000000218e-01 9.985690000000000399e-01
2.600000000000000089e-01 9.987019999999999786e-01 9.657810000000000006e-01 9.985589999999999744e-01
2.632999999999999785e-01 9.986909999999999954e-01 9.650579999999999714e-01 9.985490000000000199e-01
2.666999999999999926e-01 9.986789999999999834e-01 9.643279999999999630e-01 9.985389999999999544e-01
2.700000000000000178e-01 9.986680000000000001e-01 9.635909999999999753e-01 9.985289999999999999e-01
2.732999999999999874e-01 9.986559999999999881e-01 9.628459999999999797e-01 9.985180000000000167e-01
2.767000000000000015e-01 9.986439999999999761e-01 9.620950000000000335e-01 9.985070000000000334e-01
2.800000000000000266e-01 9.986310000000000464e-01 9.613369999999999971e-01 9.984969999999999679e-01
2.832999999999999963e-01 9.986190000000000344e-01 9.605719999999999814e-01 9.984859999999999847e-01
2.867000000000000104e-01 9.986070000000000224e-01 9.597999999999999865e-01 9.984750000000000014e-01
2.899999999999999800e-01 9.985939999999999817e-01 9.590210000000000123e-01 9.984640000000000182e-01
2.933000000000000052e-01 9.985810000000000519e-01 9.582359999999999767e-01 9.984520000000000062e-01
2.967000000000000193e-01 9.985690000000000399e-01 9.574439999999999618e-01 9.984410000000000229e-01
2.999999999999999889e-01 9.985559999999999992e-01 9.566449999999999676e-01 9.984300000000000397e-01
3.033000000000000140e-01 9.985420000000000407e-01 9.558400000000000230e-01 9.984180000000000277e-01
3.066999999999999726e-01 9.985289999999999999e-01 9.550290000000000168e-01 9.984060000000000157e-01
3.099999999999999978e-01 9.985159999999999592e-01 9.542119999999999491e-01 9.983940000000000037e-01
3.133000000000000229e-01 9.985020000000000007e-01 9.533880000000000132e-01 9.983819999999999917e-01
3.166999999999999815e-01 9.984880000000000422e-01 9.525580000000000158e-01 9.983699999999999797e-01
3.200000000000000067e-01 9.984739999999999727e-01 9.517219999999999569e-01 9.983579999999999677e-01
3.232999999999999763e-01 9.984600000000000142e-01 9.508799999999999475e-01 9.983450000000000379e-01
3.266999999999999904e-01 9.984459999999999447e-01 9.500319999999999876e-01 9.983330000000000259e-01
3.300000000000000155e-01 9.984319999999999862e-01 9.491789999999999949e-01 9.983199999999999852e-01
3.332999999999999852e-01 9.984169999999999989e-01 9.483190000000000230e-01 9.983070000000000555e-01
3.366999999999999993e-01 9.984030000000000404e-01 9.474540000000000184e-01 9.982940000000000147e-01
3.400000000000000244e-01 9.983880000000000532e-01 9.465839999999999810e-01 9.982809999999999739e-01
3.432999999999999940e-01 9.983729999999999549e-01 9.457079999999999931e-01 9.982680000000000442e-01
3.467000000000000082e-01 9.983579999999999677e-01 9.448260000000000547e-01 9.982550000000000034e-01
3.499999999999999778e-01 9.983429999999999804e-01 9.439389999999999725e-01 9.982419999999999627e-01
3.533000000000000029e-01 9.983269999999999644e-01 9.430469999999999686e-01 9.982280000000000042e-01
3.567000000000000171e-01 9.983119999999999772e-01 9.421490000000000142e-01 9.982140000000000457e-01
3.599999999999999867e-01 9.982959999999999612e-01 9.412469999999999448e-01 9.981999999999999762e-01
3.633000000000000118e-01 9.982799999999999452e-01 9.403390000000000359e-01 9.981870000000000465e-01
3.667000000000000259e-01 9.982649999999999579e-01 9.394270000000000120e-01 9.981719999999999482e-01
3.699999999999999956e-01 9.982480000000000242e-01 9.385090000000000376e-01 9.981579999999999897e-01
3.733000000000000207e-01 9.982320000000000082e-01 9.375869999999999482e-01 9.981440000000000312e-01
3.766999999999999793e-01 9.982159999999999922e-01 9.366600000000000481e-01 9.981290000000000440e-01
3.800000000000000044e-01 9.981989999999999474e-01 9.357290000000000330e-01 9.981149999999999745e-01
3.832999999999999741e-01 9.981830000000000425e-01 9.347929999999999851e-01 9.980999999999999872e-01
3.866999999999999882e-01 9.981659999999999977e-01 9.338520000000000154e-01 9.980850000000000000e-01
3.900000000000000133e-01 9.981489999999999529e-01 9.329079999999999595e-01 9.980700000000000127e-01
3.932999999999999829e-01 9.981320000000000192e-01 9.319579999999999531e-01 9.980550000000000255e-01
3.966999999999999971e-01 9.981149999999999745e-01 9.310049999999999715e-01 9.980400000000000382e-01
4.000000000000000222e-01 9.980970000000000120e-01 9.300469999999999571e-01 9.980250000000000510e-01
4.032999999999999918e-01 9.980799999999999672e-01 9.290859999999999674e-01 9.980090000000000350e-01
4.067000000000000060e-01 9.980620000000000047e-01 9.281199999999999450e-01 9.979940000000000477e-01
4.099999999999999756e-01 9.980440000000000422e-01 9.271509999999999474e-01 9.979780000000000317e-01
4.133000000000000007e-01 9.980259999999999687e-01 9.261779999999999458e-01 9.979620000000000157e-01
4.167000000000000148e-01 9.980080000000000062e-01 9.252010000000000511e-01 9.979459999999999997e-01
4.199999999999999845e-01 9.979900000000000437e-01 9.242200000000000415e-01 9.979299999999999837e-01
4.233000000000000096e-01 9.979719999999999702e-01 9.232359999999999456e-01 9.979139999999999677e-01
4.267000000000000237e-01 9.979529999999999790e-01 9.222479999999999567e-01 9.978970000000000340e-01
4.299999999999999933e-01 9.979339999999999877e-01 9.212569999999999926e-01 9.978810000000000180e-01
4.333000000000000185e-01 9.979160000000000252e-01 9.202630000000000532e-01 9.978639999999999732e-01
4.366999999999999771e-01 9.978970000000000340e-01 9.192660000000000275e-01 9.978479999999999572e-01
4.400000000000000022e-01 9.978780000000000427e-01 9.182649999999999979e-01 9.978310000000000235e-01
4.433000000000000274e-01 9.978580000000000227e-01 9.172609999999999930e-01 9.978139999999999787e-01
4.466999999999999860e-01 9.978390000000000315e-01 9.162540000000000129e-01 9.977970000000000450e-01
4.500000000000000111e-01 9.978190000000000115e-01 9.152449999999999752e-01 9.977789999999999715e-01
4.532999999999999807e-01 9.978000000000000203e-01 9.142320000000000446e-01 9.977620000000000378e-01
4.566999999999999948e-01 9.977800000000000002e-01 9.132169999999999455e-01 9.977439999999999642e-01
4.600000000000000200e-01 9.977599999999999802e-01 9.121989999999999821e-01 9.977270000000000305e-01
4.632999999999999896e-01 9.977399999999999602e-01 9.111789999999999612e-01 9.977089999999999570e-01
4.667000000000000037e-01 9.977200000000000513e-01 9.101559999999999651e-01 9.976909999999999945e-01
4.699999999999999734e-01 9.976990000000000025e-01 9.091310000000000224e-01 9.976730000000000320e-01
4.732999999999999985e-01 9.976789999999999825e-01 9.081029999999999935e-01 9.976549999999999585e-01
4.767000000000000126e-01 9.976580000000000448e-01 9.070730000000000182e-01 9.976369999999999960e-01
4.799999999999999822e-01 9.976369999999999960e-01 9.060409999999999853e-01 9.976180000000000048e-01
4.833000000000000074e-01 9.976159999999999473e-01 9.050070000000000059e-01 9.976000000000000423e-01
4.867000000000000215e-01 9.975950000000000095e-01 9.039709999999999690e-01 9.975810000000000510e-01
4.899999999999999911e-01 9.975739999999999608e-01 9.029329999999999856e-01 9.975619999999999488e-01
4.933000000000000163e-01 9.975519999999999943e-01 9.018929999999999447e-01 9.975429999999999575e-01
4.966999999999999749e-01 9.975309999999999455e-01 9.008519999999999861e-01 9.975239999999999663e-01
5.000000000000000000e-01 9.975089999999999790e-01 8.998089999999999700e-01 9.975049999999999750e-01
5.032999999999999696e-01 9.974870000000000125e-01 8.987640000000000073e-01 9.974859999999999838e-01
5.067000000000000393e-01 9.974650000000000460e-01 8.977169999999999872e-01 9.974659999999999638e-01
5.100000000000000089e-01 9.974429999999999685e-01 8.966690000000000493e-01 9.974469999999999725e-01
5.132999999999999785e-01 9.974210000000000020e-01 8.956199999999999717e-01 9.974269999999999525e-01
5.167000000000000481e-01 9.973980000000000068e-01 8.945699999999999763e-01 9.974070000000000435e-01
5.200000000000000178e-01 9.973760000000000403e-01 8.935180000000000344e-01 9.973880000000000523e-01
5.232999999999999874e-01 9.973530000000000451e-01 8.924649999999999528e-01 9.973670000000000035e-01
5.266999999999999460e-01 9.973300000000000498e-01 8.914119999999999822e-01 9.973469999999999835e-01
5.300000000000000266e-01 9.973070000000000546e-01 8.903569999999999540e-01 9.973269999999999635e-01
5.332999999999999963e-01 9.972839999999999483e-01 8.893010000000000081e-01 9.973070000000000546e-01
5.366999999999999549e-01 9.972609999999999530e-01 8.882449999999999513e-01 9.972860000000000058e-01
5.400000000000000355e-01 9.972370000000000401e-01 8.871879999999999766e-01 9.972649999999999570e-01
5.433000000000000052e-01 9.972140000000000448e-01 8.861299999999999732e-01 9.972440000000000193e-01
5.466999999999999638e-01 9.971900000000000208e-01 8.850710000000000521e-01 9.972239999999999993e-01
5.500000000000000444e-01 9.971659999999999968e-01 8.840120000000000200e-01 9.972020000000000328e-01
5.533000000000000140e-01 9.971419999999999728e-01 8.829529999999999879e-01 9.971809999999999841e-01
5.566999999999999726e-01 9.971179999999999488e-01 8.818930000000000380e-01 9.971600000000000463e-01
5.600000000000000533e-01 9.970940000000000358e-01 8.808329999999999771e-01 9.971389999999999976e-01
5.633000000000000229e-01 9.970689999999999831e-01 8.797730000000000272e-01 9.971170000000000311e-01
5.666999999999999815e-01 9.970449999999999591e-01 8.787129999999999663e-01 9.970949999999999536e-01
5.699999999999999512e-01 9.970200000000000173e-01 8.776519999999999877e-01 9.970729999999999871e-01
5.733000000000000318e-01 9.969949999999999646e-01 8.765920000000000378e-01 9.970510000000000206e-01
5.766999999999999904e-01 9.969700000000000228e-01 8.755309999999999482e-01 9.970290000000000541e-01
5.799999999999999600e-01 9.969449999999999701e-01 8.744709999999999983e-01 9.970069999999999766e-01
5.833000000000000407e-01 9.969200000000000284e-01 8.734110000000000484e-01 9.969850000000000101e-01
5.866999999999999993e-01 9.968939999999999468e-01 8.723509999999999875e-01 9.969620000000000148e-01
5.899999999999999689e-01 9.968690000000000051e-01 8.712919999999999554e-01 9.969400000000000484e-01
5.933000000000000496e-01 9.968430000000000346e-01 8.702330000000000343e-01 9.969170000000000531e-01
5.967000000000000082e-01 9.968169999999999531e-01 8.691750000000000309e-01 9.968939999999999468e-01
5.999999999999999778e-01 9.967909999999999826e-01 8.681170000000000275e-01 9.968709999999999516e-01
6.032999999999999474e-01 9.967650000000000121e-01 8.670600000000000529e-01 9.968479999999999563e-01
6.067000000000000171e-01 9.967390000000000416e-01 8.660039999999999960e-01 9.968249999999999611e-01
6.099999999999999867e-01 9.967120000000000424e-01 8.649480000000000501e-01 9.968019999999999659e-01
6.132999999999999563e-01 9.966859999999999609e-01 8.638930000000000220e-01 9.967780000000000529e-01
6.167000000000000259e-01 9.966589999999999616e-01 8.628390000000000226e-01 9.967549999999999466e-01
6.199999999999999956e-01 9.966319999999999624e-01 8.617860000000000520e-01 9.967310000000000336e-01
6.232999999999999652e-01 9.966049999999999631e-01 8.607350000000000279e-01 9.967070000000000096e-01
6.267000000000000348e-01 9.965779999999999639e-01 8.596840000000000037e-01 9.966829999999999856e-01
6.300000000000000044e-01 9.965509999999999646e-01 8.586340000000000083e-01 9.966589999999999616e-01
6.332999999999999741e-01 9.965230000000000476e-01 8.575859999999999594e-01 9.966350000000000486e-01
6.367000000000000437e-01 9.964960000000000484e-01 8.565390000000000503e-01 9.966099999999999959e-01
6.400000000000000133e-01 9.964680000000000204e-01 8.554929999999999479e-01 9.965859999999999719e-01
6.432999999999999829e-01 9.964399999999999924e-01 8.544490000000000141e-01 9.965610000000000301e-01
6.467000000000000526e-01 9.964119999999999644e-01 8.534059999999999979e-01 9.965370000000000061e-01
6.500000000000000222e-01 9.963840000000000474e-01 8.523650000000000393e-01 9.965119999999999534e-01
6.532999999999999918e-01 9.963549999999999907e-01 8.513260000000000272e-01 9.964870000000000116e-01
6.566999999999999504e-01 9.963269999999999627e-01 8.502880000000000438e-01 9.964619999999999589e-01
6.600000000000000311e-01 9.962980000000000169e-01 8.492520000000000069e-01 9.964370000000000172e-01
