#  sigma(detuning) [kHz]             avg fid (jz)         avg fid (stirap)          avg fid (mixed)
0.000000000000000000e+00 9.991440000000000321e-01 9.953170000000000073e-01 9.989500000000000046e-01
1.670000000000000095e-01 9.991440000000000321e-01 9.953170000000000073e-01 9.989500000000000046e-01
3.330000000000000182e-01 9.991440000000000321e-01 9.953170000000000073e-01 9.989500000000000046e-01
5.000000000000000000e-01 9.991440000000000321e-01 9.953130000000000033e-01 9.989500000000000046e-01
6.670000000000000373e-01 9.991440000000000321e-01 9.952969999999999873e-01 9.989500000000000046e-01
8.329999999999999627e-01 9.991430000000000033e-01 9.952710000000000168e-01 9.989489999999999759e-01
1.000000000000000000e+00 9.991419999999999746e-01 9.952400000000000135e-01 9.989489999999999759e-01
1.167000000000000037e+00 9.991400000000000281e-01 9.952029999999999488e-01 9.989479999999999471e-01
1.332999999999999963e+00 9.991389999999999993e-01 9.951600000000000446e-01 9.989479999999999471e-01
1.500000000000000000e+00 9.991370000000000529e-01 9.951119999999999965e-01 9.989470000000000294e-01
1.667000000000000037e+00 9.991349999999999953e-01 9.950569999999999693e-01 9.989460000000000006e-01
1.832999999999999963e+00 9.991330000000000489e-01 9.949980000000000491e-01 9.989449999999999719e-01
2.000000000000000000e+00 9.991299999999999626e-01 9.949320000000000386e-01 9.989440000000000541e-01
2.166999999999999815e+00 9.991280000000000161e-01 9.948609999999999953e-01 9.989430000000000254e-01
2.333000000000000185e+00 9.991250000000000409e-01 9.947840000000000016e-01 9.989419999999999966e-01
2.500000000000000000e+00 9.991219999999999546e-01 9.947009999999999463e-01 9.989409999999999679e-01
2.666999999999999815e+00 9.991179999999999506e-01 9.946129999999999693e-01 9.989390000000000214e-01
2.833000000000000185e+00 9.991149999999999753e-01 9.945190000000000419e-01 9.989379999999999926e-01
3.000000000000000000e+00 9.991109999999999713e-01 9.944190000000000529e-01 9.989360000000000461e-01
3.166999999999999815e+00 9.991069999999999673e-01 9.943140000000000311e-01 9.989350000000000174e-01
3.333000000000000185e+00 9.991029999999999633e-01 9.942029999999999479e-01 9.989329999999999599e-01
3.500000000000000000e+00 9.990989999999999593e-01 9.940870000000000539e-01 9.989310000000000134e-01
3.666999999999999815e+00 9.990940000000000376e-01 9.939639999999999587e-01 9.989289999999999559e-01
3.833000000000000185e+00 9.990900000000000336e-01 9.938369999999999704e-01 9.989270000000000094e-01
4.000000000000000000e+00 9.990850000000000009e-01 9.937030000000000030e-01 9.989249999999999519e-01
4.166999999999999815e+00 9.990790000000000504e-01 9.935640000000000027e-01 9.989230000000000054e-01
4.333000000000000185e+00 9.990740000000000176e-01 9.934190000000000520e-01 9.989209999999999479e-01
4.500000000000000000e+00 9.990679999999999561e-01 9.932689999999999575e-01 9.989190000000000014e-01
4.666999999999999815e+00 9.990630000000000344e-01 9.931130000000000235e-01 9.989160000000000261e-01
4.833000000000000185e+00 9.990569999999999729e-01 9.929510000000000280e-01 9.989139999999999686e-01
5.000000000000000000e+00 9.990499999999999936e-01 9.927839999999999998e-01 9.989109999999999934e-01
5.166999999999999815e+00 9.990440000000000431e-01 9.926110000000000211e-01 9.989090000000000469e-01
5.333000000000000185e+00 9.990369999999999528e-01 9.924330000000000096e-01 9.989059999999999606e-01
5.500000000000000000e+00 9.990299999999999736e-01 9.922490000000000476e-01 9.989029999999999854e-01
5.666999999999999815e+00 9.990229999999999944e-01 9.920600000000000529e-01 9.989000000000000101e-01
5.833000000000000185e+00 9.990160000000000151e-01 9.918649999999999967e-01 9.988970000000000349e-01
6.000000000000000000e+00 9.990080000000000071e-01 9.916639999999999899e-01 9.988939999999999486e-01
6.166999999999999815e+00 9.990010000000000279e-01 9.914579999999999504e-01 9.988909999999999734e-01
6.333000000000000185e+00 9.989930000000000199e-01 9.912469999999999892e-01 9.988869999999999694e-01
6.500000000000000000e+00 9.989850000000000119e-01 9.910299999999999665e-01 9.988839999999999941e-01
6.666999999999999815e+00 9.989759999999999751e-01 9.908069999999999933e-01 9.988810000000000189e-01
6.833000000000000185e+00 9.989679999999999671e-01 9.905789999999999873e-01 9.988770000000000149e-01
7.000000000000000000e+00 9.989590000000000414e-01 9.903459999999999486e-01 9.988730000000000109e-01
7.166999999999999815e+00 9.989500000000000046e-01 9.901069999999999593e-01 9.988700000000000356e-01
7.333000000000000185e+00 9.989409999999999679e-01 9.898620000000000196e-01 9.988660000000000316e-01
7.500000000000000000e+00 9.989310000000000134e-01 9.896120000000000472e-01 9.988620000000000276e-01
7.666999999999999815e+00 9.989219999999999766e-01 9.893570000000000420e-01 9.988580000000000236e-01
7.833000000000000185e+00 9.989120000000000221e-01 9.890959999999999752e-01 9.988540000000000196e-01
8.000000000000000000e+00 9.989019999999999566e-01 9.888299999999999867e-01 9.988500000000000156e-01
8.166999999999999815e+00 9.988920000000000021e-01 9.885589999999999655e-01 9.988449999999999829e-01
8.333000000000000185e+00 9.988810000000000189e-01 9.882819999999999938e-01 9.988409999999999789e-01
8.500000000000000000e+00 9.988709999999999534e-01 9.879999999999999893e-01 9.988369999999999749e-01
8.666999999999999815e+00 9.988599999999999701e-01 9.877120000000000344e-01 9.988320000000000531e-01
8.833000000000000185e+00 9.988489999999999869e-01 9.874190000000000467e-01 9.988270000000000204e-01
9.000000000000000000e+00 9.988369999999999749e-01 9.871210000000000262e-01 9.988230000000000164e-01
9.166999999999999815e+00 9.988259999999999916e-01 9.868170000000000552e-01 9.988179999999999836e-01
9.333000000000000185e+00 9.988139999999999796e-01 9.865089999999999693e-01 9.988129999999999509e-01
9.500000000000000000e+00 9.988019999999999676e-01 9.861940000000000150e-01 9.988080000000000291e-01
9.666999999999999815e+00 9.987899999999999556e-01 9.858749999999999458e-01 9.988029999999999964e-01
9.833000000000000185e+00 9.987780000000000546e-01 9.855509999999999549e-01 9.987979999999999636e-01
1.000000000000000000e+01 9.987650000000000139e-01 9.852210000000000134e-01 9.987930000000000419e-01
1.016699999999999982e+01 9.987519999999999731e-01 9.848860000000000392e-01 9.987869999999999804e-01
1.033300000000000018e+01 9.987390000000000434e-01 9.845450000000000035e-01 9.987819999999999476e-01
1.050000000000000000e+01 9.987260000000000026e-01 9.841999999999999638e-01 9.987770000000000259e-01
1.066699999999999982e+01 9.987129999999999619e-01 9.838489999999999736e-01 9.987709999999999644e-01
1.083300000000000018e+01 9.986990000000000034e-01 9.834939999999999793e-01 9.987650000000000139e-01
1.100000000000000000e+01 9.986850000000000449e-01 9.831330000000000346e-01 9.987599999999999811e-01
1.116699999999999982e+01 9.986709999999999754e-01 9.827669999999999462e-01 9.987540000000000306e-01
1.133300000000000018e+01 9.986570000000000169e-01 9.823960000000000470e-01 9.987479999999999691e-01
1.150000000000000000e+01 9.986420000000000297e-01 9.820200000000000040e-01 9.987420000000000186e-01
1.166699999999999982e+01 9.986279999999999601e-01 9.816380000000000106e-01 9.987359999999999571e-01
1.183300000000000018e+01 9.986129999999999729e-01 9.812520000000000131e-01 9.987300000000000066e-01
1.200000000000000000e+01 9.985979999999999857e-01 9.808609999999999829e-01 9.987230000000000274e-01
1.216699999999999982e+01 9.985819999999999697e-01 9.804650000000000309e-01 9.987169999999999659e-01
1.233300000000000018e+01 9.985669999999999824e-01 9.800630000000000175e-01 9.987099999999999866e-01
1.250000000000000000e+01 9.985509999999999664e-01 9.796570000000000000e-01 9.987040000000000362e-01
1.266699999999999982e+01 9.985349999999999504e-01 9.792459999999999498e-01 9.986969999999999459e-01
1.283300000000000018e+01 9.985190000000000454e-01 9.788299999999999779e-01 9.986909999999999954e-01
1.300000000000000000e+01 9.985030000000000294e-01 9.784089999999999732e-01 9.986840000000000162e-01
1.316699999999999982e+01 9.984859999999999847e-01 9.779830000000000467e-01 9.986770000000000369e-01
1.333300000000000018e+01 9.984690000000000509e-01 9.775519999999999765e-01 9.986699999999999466e-01
1.350000000000000000e+01 9.984520000000000062e-01 9.771159999999999846e-01 9.986629999999999674e-01
1.366699999999999982e+01 9.984349999999999614e-01 9.766759999999999886e-01 9.986559999999999881e-01
1.383300000000000018e+01 9.984180000000000277e-01 9.762309999999999599e-01 9.986479999999999801e-01
1.400000000000000000e+01 9.983999999999999542e-01 9.757810000000000095e-01 9.986410000000000009e-01
1.416699999999999982e+01 9.983819999999999917e-01 9.753260000000000263e-01 9.986340000000000217e-01
1.433300000000000018e+01 9.983640000000000292e-01 9.748660000000000103e-01 9.986260000000000137e-01
1.450000000000000000e+01 9.983459999999999557e-01 9.744019999999999904e-01 9.986190000000000344e-01
1.466699999999999982e+01 9.983269999999999644e-01 9.739330000000000487e-01 9.986110000000000264e-01
1.483300000000000018e+01 9.983090000000000019e-01 9.734589999999999632e-01 9.986030000000000184e-01
1.500000000000000000e+01 9.982900000000000107e-01 9.729809999999999848e-01 9.985950000000000104e-01
1.516699999999999982e+01 9.982710000000000194e-01 9.724979999999999736e-01 9.985870000000000024e-01
1.533300000000000018e+01 9.982509999999999994e-01 9.720109999999999584e-01 9.985789999999999944e-01
1.550000000000000000e+01 9.982320000000000082e-01 9.715179999999999927e-01 9.985709999999999864e-01
1.566699999999999982e+01 9.982119999999999882e-01 9.710220000000000518e-01 9.985629999999999784e-01
1.583300000000000018e+01 9.981919999999999682e-01 9.705200000000000493e-01 9.985549999999999704e-01
1.600000000000000000e+01 9.981719999999999482e-01 9.700149999999999606e-01 9.985460000000000447e-01
1.616700000000000159e+01 9.981520000000000392e-01 9.695040000000000324e-01 9.985380000000000367e-01
1.633299999999999841e+01 9.981309999999999905e-01 9.689900000000000180e-01 9.985289999999999999e-01
1.650000000000000000e+01 9.981100000000000527e-01 9.684700000000000530e-01 9.985209999999999919e-01
1.666700000000000159e+01 9.980890000000000040e-01 9.679470000000000018e-01 9.985119999999999552e-01
1.683299999999999841e+01 9.980679999999999552e-01 9.674190000000000289e-01 9.985030000000000294e-01
1.700000000000000000e+01 9.980470000000000175e-01 9.668860000000000232e-01 9.984939999999999927e-01
1.716700000000000159e+01 9.980250000000000510e-01 9.663490000000000135e-01 9.984849999999999559e-01
1.733299999999999841e+01 9.980029999999999735e-01 9.658079999999999998e-01 9.984760000000000302e-01
1.750000000000000000e+01 9.979810000000000070e-01 9.652629999999999821e-01 9.984669999999999934e-01
1.766700000000000159e+01 9.979590000000000405e-01 9.647130000000000427e-01 9.984579999999999567e-01
1.783299999999999841e+01 9.979369999999999630e-01 9.641589999999999883e-01 9.984490000000000309e-01
1.800000000000000000e+01 9.979139999999999677e-01 9.636010000000000408e-01 9.984389999999999654e-01
1.816700000000000159e+01 9.978909999999999725e-01 9.630389999999999784e-01 9.984300000000000397e-01
1.833299999999999841e+01 9.978679999999999772e-01 9.624719999999999942e-01 9.984199999999999742e-01
1.850000000000000000e+01 9.978449999999999820e-01 9.619010000000000060e-01 9.984100000000000197e-01
1.866700000000000159e+01 9.978209999999999580e-01 9.613270000000000426e-01 9.984009999999999829e-01
1.883299999999999841e+01 9.977979999999999627e-01 9.607480000000000464e-01 9.983910000000000284e-01
1.900000000000000000e+01 9.977740000000000498e-01 9.601650000000000462e-01 9.983809999999999629e-01
1.916700000000000159e+01 9.977500000000000258e-01 9.595770000000000133e-01 9.983710000000000084e-01
1.933299999999999841e+01 9.977249999999999730e-01 9.589860000000000051e-01 9.983610000000000539e-01
1.950000000000000000e+01 9.977009999999999490e-01 9.583909999999999929e-01 9.983499999999999597e-01
1.966700000000000159e+01 9.976760000000000073e-01 9.577919999999999767e-01 9.983400000000000052e-01
1.983299999999999841e+01 9.976509999999999545e-01 9.571889999999999565e-01 9.983300000000000507e-01
2.000000000000000000e+01 9.976260000000000128e-01 9.565820000000000434e-01 9.983189999999999564e-01
2.016700000000000159e+01 9.976000000000000423e-01 9.559710000000000152e-01 9.983090000000000019e-01
2.033299999999999841e+01 9.975749999999999895e-01 9.553559999999999830e-01 9.982980000000000187e-01
2.050000000000000000e+01 9.975490000000000190e-01 9.547379999999999756e-01 9.982870000000000354e-01
2.066700000000000159e+01 9.975230000000000485e-01 9.541159999999999641e-01 9.982760000000000522e-01
2.083299999999999841e+01 9.974969999999999670e-01 9.534890000000000310e-01 9.982649999999999579e-01
2.100000000000000000e+01 9.974699999999999678e-01 9.528590000000000115e-01 9.982539999999999747e-01
2.116700000000000159e+01 9.974439999999999973e-01 9.522260000000000169e-01 9.982429999999999914e-01
2.133299999999999841e+01 9.974169999999999980e-01 9.515879999999999894e-01 9.982320000000000082e-01
2.150000000000000000e+01 9.973899999999999988e-01 9.509469999999999867e-01 9.982210000000000250e-01
2.166700000000000159e+01 9.973629999999999995e-01 9.503030000000000088e-01 9.982100000000000417e-01
2.183299999999999841e+01 9.973349999999999715e-01 9.496539999999999981e-01 9.981980000000000297e-01
2.200000000000000000e+01 9.973070000000000546e-01 9.490020000000000122e-01 9.981870000000000465e-01
2.216700000000000159e+01 9.972790000000000266e-01 9.483470000000000510e-01 9.981750000000000345e-01
2.233299999999999841e+01 9.972509999999999986e-01 9.476879999999999749e-01 9.981630000000000225e-01
2.250000000000000000e+01 9.972229999999999706e-01 9.470250000000000057e-01 9.981520000000000392e-01
2.266700000000000159e+01 9.971950000000000536e-01 9.463589999999999502e-01 9.981400000000000272e-01
2.283299999999999841e+01 9.971659999999999968e-01 9.456900000000000306e-01 9.981280000000000152e-01
2.300000000000000000e+01 9.971370000000000511e-01 9.450169999999999959e-01 9.981160000000000032e-01
2.316700000000000159e+01 9.971079999999999943e-01 9.443409999999999860e-01 9.981039999999999912e-01
2.333299999999999841e+01 9.970780000000000198e-01 9.436609999999999721e-01 9.980909999999999505e-01
2.350000000000000000e+01 9.970489999999999631e-01 9.429779999999999829e-01 9.980790000000000495e-01
2.366700000000000159e+01 9.970189999999999886e-01 9.422920000000000185e-01 9.980670000000000375e-01
2.383299999999999841e+01 9.969890000000000141e-01 9.416020000000000501e-01 9.980539999999999967e-01
2.400000000000000000e+01 9.969590000000000396e-01 9.409100000000000241e-01 9.980419999999999847e-01
2.416700000000000159e+01 9.969289999999999541e-01 9.402139999999999942e-01 9.980290000000000550e-01
2.433299999999999841e+01 9.968979999999999508e-01 9.395139999999999603e-01 9.980160000000000142e-01
2.450000000000000000e+01 9.968669999999999476e-01 9.388119999999999798e-01 9.980029999999999735e-01
2.466700000000000159e+01 9.968360000000000554e-01 9.381059999999999954e-01 9.979900000000000437e-01
2.483299999999999841e+01 9.968050000000000521e-01 9.373979999999999535e-01 9.979770000000000030e-01
2.500000000000000000e+01 9.967730000000000201e-01 9.366860000000000186e-01 9.979639999999999622e-01
2.516700000000000159e+01 9.967420000000000169e-01 9.359709999999999974e-01 9.979510000000000325e-01
2.533299999999999841e+01 9.967099999999999849e-01 9.352530000000000010e-01 9.979379999999999917e-01
2.550000000000000000e+01 9.966779999999999529e-01 9.345329999999999471e-01 9.979249999999999510e-01
2.566700000000000159e+01 9.966460000000000319e-01 9.338090000000000002e-01 9.979109999999999925e-01
2.583299999999999841e+01 9.966129999999999711e-01 9.330819999999999670e-01 9.978979999999999517e-01
2.600000000000000000e+01 9.965810000000000501e-01 9.323529999999999873e-01 9.978839999999999932e-01
2.616700000000000159e+01 9.965479999999999894e-01 9.316200000000000037e-01 9.978700000000000347e-01
2.633299999999999841e+01 9.965150000000000396e-01 9.308849999999999625e-01 9.978559999999999652e-01
2.650000000000000000e+01 9.964809999999999501e-01 9.301469999999999461e-01 9.978430000000000355e-01
2.666700000000000159e+01 9.964480000000000004e-01 9.294059999999999544e-01 9.978289999999999660e-01
2.683299999999999841e+01 9.964140000000000219e-01 9.286619999999999875e-01 9.978150000000000075e-01
2.700000000000000000e+01 9.963800000000000434e-01 9.279159999999999631e-01 9.978000000000000203e-01
2.716700000000000159e+01 9.963459999999999539e-01 9.271669999999999634e-01 9.977859999999999507e-01
2.733299999999999841e+01 9.963119999999999754e-01 9.264149999999999885e-01 9.977719999999999922e-01
2.750000000000000000e+01 9.962769999999999682e-01 9.256609999999999561e-01 9.977570000000000050e-01
2.766700000000000159e+01 9.962419999999999609e-01 9.249039999999999484e-01 9.977430000000000465e-01
2.783299999999999841e+01 9.962079999999999824e-01 9.241439999999999655e-01 9.977279999999999482e-01
2.800000000000000000e+01 9.961719999999999464e-01 9.233820000000000361e-01 9.977139999999999898e-01
2.816700000000000159e+01 9.961370000000000502e-01 9.226170000000000204e-01 9.976990000000000025e-01
2.833299999999999841e+01 9.961010000000000142e-01 9.218499999999999472e-01 9.976840000000000153e-01
2.850000000000000000e+01 9.960660000000000069e-01 9.210810000000000386e-01 9.976690000000000280e-01
2.866700000000000159e+01 9.960299999999999709e-01 9.203090000000000437e-01 9.976540000000000408e-01
2.883299999999999841e+01 9.959930000000000172e-01 9.195339999999999625e-01 9.976390000000000535e-01
2.900000000000000000e+01 9.959569999999999812e-01 9.187579999999999636e-01 9.976239999999999553e-01
2.916700000000000159e+01 9.959200000000000275e-01 9.179779999999999607e-01 9.976089999999999680e-01
2.933299999999999841e+01 9.958839999999999915e-01 9.171970000000000400e-01 9.975929999999999520e-01
2.950000000000000000e+01 9.958470000000000377e-01 9.164130000000000331e-01 9.975779999999999648e-01
2.966700000000000159e+01 9.958090000000000552e-01 9.156269999999999687e-01 9.975619999999999488e-01
2.983299999999999841e+01 9.957719999999999905e-01 9.148389999999999578e-01 9.975469999999999615e-01
3.000000000000000000e+01 9.957340000000000080e-01 9.140490000000000004e-01 9.975309999999999455e-01
3.016700000000000159e+01 9.956970000000000542e-01 9.132559999999999567e-01 9.975150000000000405e-01
3.033299999999999841e+01 9.956580000000000430e-01 9.124619999999999953e-01 9.974990000000000245e-01
3.050000000000000000e+01 9.956199999999999495e-01 9.116649999999999476e-01 9.974830000000000085e-01
3.066700000000000159e+01 9.955819999999999670e-01 9.108659999999999535e-01 9.974669999999999925e-01
3.083299999999999841e+01 9.955429999999999557e-01 9.100650000000000128e-01 9.974509999999999765e-01
3.100000000000000000e+01 9.955039999999999445e-01 9.092620000000000147e-01 9.974349999999999605e-01
3.116700000000000159e+01 9.954650000000000443e-01 9.084569999999999590e-01 9.974189999999999445e-01
3.133299999999999841e+01 9.954260000000000330e-01 9.076509999999999856e-01 9.974020000000000108e-01
3.150000000000000000e+01 9.953859999999999930e-01 9.068420000000000369e-01 9.973859999999999948e-01
3.166700000000000159e+01 9.953469999999999818e-01 9.060310000000000308e-01 9.973689999999999500e-01
3.183299999999999841e+01 9.953070000000000528e-01 9.052189999999999959e-01 9.973530000000000451e-01
3.200000000000000000e+01 9.952670000000000128e-01 9.044039999999999857e-01 9.973360000000000003e-01
3.216700000000000159e+01 9.952260000000000550e-01 9.035879999999999468e-01 9.973189999999999555e-01
3.233299999999999841e+01 9.951860000000000150e-01 9.027699999999999614e-01 9.973020000000000218e-01
3.250000000000000000e+01 9.951449999999999463e-01 9.019500000000000295e-01 9.972849999999999770e-01
3.266700000000000159e+01 9.951039999999999885e-01 9.011289999999999578e-01 9.972680000000000433e-01
3.283299999999999841e+01 9.950630000000000308e-01 9.003060000000000507e-01 9.972509999999999986e-01
3.300000000000000000e+01 9.950219999999999620e-01 8.994809999999999750e-01 9.972339999999999538e-01
